time,voltage
0.0,0.1764052345967664
0.0027785495971103086,0.04874434842790651
0.005557099194220617,0.11532839329071898
0.008335648791330925,0.2502645622956094
0.011114198388441235,0.22164371122207868
0.013892747985551544,-0.05413783905127459
0.01667129758266185,0.14728754211798878
0.01944984717977216,0.045815797515694937
0.02222839677688247,0.05928387440448847
0.025006946373992776,0.11929863664357922
0.027785495971103087,0.10125232489411405
0.030564045568213394,0.24085803036748157
0.0333425951653237,0.1800880788137293
0.03612114476243401,0.12467374234523868
0.03889969435954432,0.1653802088300222
0.04167824395665463,0.16281208675927608
0.04445679355376494,0.28726387779422347
0.04723534315087525,0.1257094449562809
0.05001389274798555,0.1858567759631473
0.052792442345095864,0.07741806273979107
0.055570991942206174,-0.08424334048273047
0.05834954153931648,0.2445933709114282
0.06112809113642679,0.2737963755226492
0.06390664073353709,0.12120039668339933
0.0666851903306474,0.43039694524687433
0.06946373992775771,0.06592750092003921
0.07224228952486803,0.22381808631646902
0.07502083912197834,0.20833519536528744
0.07779938871908865,0.3880736464263926
0.08057793831619894,0.38940218580143166
0.08335648791330925,0.2655577365674105
0.08613503751041957,0.2953997171997406
0.08891358710752988,0.17624685569224302
0.09169213670464019,0.07430697466794373
0.0944706863017505,0.2448735798758513
0.09724923589886081,0.3024926290857949
0.1000277854959711,0.41699230940777793
0.10280633509308142,0.421217141555893
0.10558488469019173,0.2691706581584105
0.10836343428730204,0.2845034055972268
0.11114198388441235,0.21661280069311084
0.11392053348152266,0.1861027433078747
0.11669908307863296,0.16401395842274746
0.11947763267574327,0.5361529659317656
0.12225618227285358,0.2964407045358341
0.1250347318699639,0.30982310682915587
0.12781328146707419,0.2344678361098216
0.1305918310641845,0.44350359938503314
0.1333703806612948,0.21026049642980157
0.13614893025840513,0.3561586993539444
0.13892747985551543,0.2935534838836504
0.14170602945262575,0.42734104154630714
0.14448457904973605,0.343002477168556
0.14726312864684635,0.2813318634658374
0.15004167824395667,0.40176722277075366
0.15282022784106697,0.45248568724433874
0.1555987774381773,0.42124642354469494
0.1583773270352876,0.44965773244482077
0.1611558766323979,0.36066634714937
0.1639344262295082,0.3923831974394523
0.1667129758266185,0.3658393810418747
0.16949152542372883,0.4014262261119265
0.17227007502083913,0.36022972580726015
0.17504862461794946,0.27294433208595464
0.17782717421505975,0.46720764369123946
0.18060572381217005,0.41304238549807765
0.18338427340928037,0.29381796199951793
0.18616282300639067,0.5065941052677321
0.188941372603501,0.37292383169107773
0.1917199222006113,0.4720446842307263
0.19449847179772162,0.5428133912791826
0.19727702139483191,0.4857135995830511
0.2000555709919422,0.5895222462395652
0.20283412058905254,0.3547215175762396
0.20561267018616283,0.5209144389975117
0.20839121978327316,0.4145289398094842
0.21116976938038345,0.39811269672901795
0.21394831897749375,0.4293420314656156
0.21672686857460408,0.45795783447619365
0.21950541817171437,0.4964666402702907
0.2222839677688247,0.37592253953219185
0.225062517365935,0.5839575052624763
0.22784106696304532,0.5417279108210783
0.23061961656015562,0.34267319363300325
0.2333981661572659,0.646107415987651
0.23617671575437624,0.6877041873973336
0.23895526535148653,0.6166744850320468
0.24173381494859686,0.481333279759119
0.24451236454570716,0.39262755261620463
0.24729091414281748,0.6053727399725602
0.2500694637399278,0.45968225767975734
0.2528480133370381,0.622164455036932
0.25562656293414837,0.5205150763356269
0.2584051125312587,0.596966818434532
0.261183662128369,0.5344027137282124
0.26396221172547935,0.5687345366387546
0.2667407613225896,0.49828656423288414
0.26951931091969994,0.6748314066398671
0.27229786051681026,0.5077921167585684
0.27507641011392053,0.5340054977214936
0.27785495971103086,0.6806767831108491
0.2806335093081412,0.3559908978178551
0.2834120589052515,0.3619738192039624
0.2861906085023618,0.584068461264657
0.2889691580994721,0.36777445471736214
0.2917477076965824,0.6772590743144546
0.2945262572936927,0.4391980413521681
0.297304806890803,0.4033309773940077
0.30008335648791334,0.6677414726401609
0.3028619060850236,0.6207246542551084
0.30564045568213394,0.6565109154251818
0.30841900527924426,0.5572981580247675
0.3111975548763546,0.3773675580784881
0.31397610447346486,0.6511517942320801
0.3167546540705752,0.4298598915499123
0.3195332036676855,0.5332816175083868
0.3223117532647958,0.5439988481460828
0.3250903028619061,0.4298733863339043
0.3278688524590164,0.5027473361973818
0.33064740205612675,0.5293905588668341
0.333425951653237,0.47050969717900704
0.33620450125034734,0.3184923885511857
0.33898305084745767,0.453691031365441
0.34176160044456794,0.5518113641311984
0.34454015004167826,0.3448937939559301
0.3473186996387886,0.394438646015319
0.3500972492358989,0.3608134878400454
0.3528757988330092,0.5840587278914806
0.3556543484301195,0.46104369562364916
0.35843289802722983,0.4291222421287012
0.3612114476243401,0.3058279207828644
0.3639899972214504,0.43107124173364103
0.36676854681856075,0.3039249046438712
0.3695470964156711,0.36863989247731666
0.37232564601278134,0.2958595111899709
0.37510419560989167,0.4209651798881413
0.377882745207002,0.4047509783470691
0.38066129480411226,0.3199262811052534
0.3834398444012226,0.3739172325924779
0.3862183939983329,0.21846892245561095
0.38899694359544323,0.17200792710758353
0.3917754931925535,0.3583335947563623
0.39455404278966383,0.3242266916065364
0.39733259238677415,0.36413366557497817
0.4001111419838844,0.53192455332451
0.40288969158099475,0.38094809230976284
0.40566824117810507,0.18802066961706837
0.4084467907752154,0.38372214387095227
0.41122534037232567,0.13306449077469037
0.414003889969436,0.21105082675695894
0.4167824395665463,0.2428607901340707
0.4195609891636566,0.4134187875347246
0.4223395387607669,0.15993481559627315
0.42511808835787723,0.14402078303483157
0.4278966379549875,0.2090046409407289
0.4306751875520978,0.14462062038209006
0.43345373714920815,0.3156862981150529
0.4362322867463185,0.08702193490072371
0.43901083634342875,0.0722011638294979
0.44178938594053907,0.1350419900998953
0.4445679355376494,0.12084221321398346
0.44734648513475966,0.3553681182248903
0.45012503473187,0.24907694744409994
0.4529035843289803,0.1545629677307411
0.45568213392609064,0.014892829383902684
0.4584606835232009,0.2134593288615289
0.46123923312031123,0.02054882292888359
0.46401778271742156,-0.042396172874211394
0.4667963323145318,0.22236033526077476
0.46957488191164215,0.1266964743345737
0.4723534315087525,0.17850399795899477
0.4751319811058628,0.10968044488882753
0.47791053070297307,0.15485659065310167
0.4806890803000834,-0.004584262636700927
0.4834676298971937,-0.051579664959453354
0.486246179494304,0.11131459242261643
0.4890247290914143,-0.04588845722724762
0.49180327868852464,-0.04321560038984691
0.49458182828563496,-0.02853484959273685
0.49736037788274523,0.010040153184484877
0.5001389274798556,-0.035835844620017175
0.5029174770769659,-0.14666014059126706
0.5056960266740762,-0.0822526159847608
0.5084745762711865,-0.24895140264353216
0.5112531258682967,0.027199856462120857
0.5140316754654071,-0.204230489624862
0.5168102250625174,-0.1631510756200797
0.5195887746596277,-0.056168185628487605
0.522367324256738,-0.14399423630671238
0.5251458738538484,0.07563162585106935
0.5279244234509587,-0.21656344477222028
0.5307029730480689,-0.06915398655035537
0.5334815226451792,-0.10833945916268004
0.5362600722422896,-0.22974080863646618
0.5390386218393999,-0.0690896551966252
0.5418171714365102,-0.1470208113120263
0.5445957210336205,-0.06109639952697271
0.5473742706307309,-0.06429217225833127
0.5501528202278411,0.0613585678454453
0.5529313698249514,-0.029587441483849897
0.5557099194220617,-0.2083838773736729
0.558488469019172,-0.2035768093495846
0.5612670186162824,-0.07779137985750635
0.5640455682133927,-0.13029218973758055
0.566824117810503,-0.13980695218165834
0.5696026674076132,-0.3734551311202201
0.5723812170047236,-0.22206702117397567
0.5751597666018339,-0.3012454417482971
0.5779383161989442,-0.20718851336911556
0.5807168657960545,-0.25266295646604736
0.5834954153931649,-0.1594229559799562
0.5862739649902752,-0.22623562545144887
0.5890525145873854,-0.1867626309332006
0.5918310641844957,-0.3193944300433494
0.594609613781606,-0.37447110995199706
0.5973881633787164,-0.32822007148427124
0.6001667129758267,-0.2960182242278222
0.602945262572937,-0.26341238857751625
0.6057238121700472,-0.08231620804793313
0.6085023617671576,-0.3192984120290744
0.6112809113642679,-0.41739676312277024
0.6140594609613782,-0.36303192828807135
0.6168380105584885,-0.38132473612349316
0.6196165601555989,-0.29324628888863774
0.6223951097527092,-0.5017993854691221
0.6251736593498194,-0.3476127547123108
0.6279522089469297,-0.3443996972896934
0.63073075854404,-0.34283390864095614
0.6335093081411504,-0.4316737153729614
0.6362878577382607,-0.4015110175286326
0.639066407335371,-0.5257865507673215
0.6418449569324813,-0.4382572172134076
0.6446235065295916,-0.4486376092520139
0.6474020561267019,-0.35805249976069287
0.6501806057238122,-0.5204599830985605
0.6529591553209225,-0.33178277802192147
0.6557377049180328,-0.2653900523271726
0.6585162545151432,-0.626646493803652
0.6612948041122535,-0.3817037028632856
0.6640733537093637,-0.3611910303410789
0.666851903306474,-0.4970470801340209
0.6696304529035844,-0.4773200409844641
0.6724090025006947,-0.45503703017721336
0.675187552097805,-0.4755495374239264
0.6779661016949153,-0.4805573619903219
0.6807446512920257,-0.6210050156031194
0.6835232008891359,-0.34178186017366785
0.6863017504862462,-0.35252425055905234
0.6890803000833565,-0.5451532823065838
0.6918588496804668,-0.6136486741609566
0.6946373992775772,-0.4179468050435746
0.6974159488746875,-0.5305358786147134
0.7001944984717978,-0.46152140686846
0.702973048068908,-0.5102642180240087
0.7057515976660184,-0.41164636896196183
0.7085301472631287,-0.4136476596543806
0.711308696860239,-0.5578573962115039
0.7140872464573493,-0.6256612297239885
0.7168657960544597,-0.6474973233709209
0.71964434565157,-0.4298950962403484
0.7224228952486802,-0.6113988843732112
0.7252014448457905,-0.5446244108707374
0.7279799944429008,-0.5548534527561795
0.7307585440400112,-0.5016071187368781
0.7335370936371215,-0.6909554327275279
0.7363156432342318,-0.47927508054233114
0.7390941928313421,-0.4464374993715978
0.7418727424284524,-0.49050602272044863
0.7446512920255627,-0.5308062874194909
0.747429841622673,-0.4901947890051383
0.7502083912197833,-0.46009493682972
0.7529869408168937,-0.7771712234382153
0.755765490414004,-0.3040807307182295
0.7585440400111143,-0.46027035351095186
0.7613225896082245,-0.5639760983009966
0.7641011392053348,-0.5371341278453203
0.7668796888024452,-0.4478163711008634
0.7696582383995555,-0.5078011680195745
0.7724367879966658,-0.6981082176560969
0.7752153375937761,-0.28728860378687315
0.7779938871908865,-0.503339593759909
0.7807724367879967,-0.3886658566973133
0.783550986385107,-0.5581361625758291
0.7863295359822173,-0.3333925063551298
0.7891080855793277,-0.4563464403011098
0.791886635176438,-0.4218992111965627
0.7946651847735483,-0.5849645744205256
0.7974437343706586,-0.3568339242179229
0.8002222839677688,-0.4063301834705164
0.8030008335648792,-0.3423460585982755
0.8057793831619895,-0.5324141017300698
0.8085579327590998,-0.5146395959843448
0.8113364823562101,-0.2329345621060519
0.8141150319533205,-0.5659759497859322
0.8168935815504308,-0.4700772827018965
0.819672131147541,-0.33916199527996616
0.8224506807446513,-0.4393094341684789
0.8252292303417617,-0.3868804916310397
0.828007779938872,-0.4810790109541785
0.8307863295359823,-0.39995231926070574
0.8335648791330926,-0.5633012176505761
0.8363434287302028,-0.26239422676792734
0.8391219783273132,-0.43545195291233507
0.8419005279244235,-0.48695250725811323
0.8446790775215338,-0.347467834627196
0.8474576271186441,-0.45522336669293983
0.8502361767157545,-0.5374977794749374
0.8530147263128648,-0.5335410746631832
0.855793275909975,-0.3241678335770107
0.8585718255070853,-0.4040583731337806
0.8613503751041957,-0.3959087807228636
0.864128924701306,-0.26908524986299054
0.8669074742984163,-0.48374835814671424
0.8696860238955266,-0.43822660631844285
0.872464573492637,-0.3976285729745614
0.8752431230897472,-0.3435777356454966
0.8780216726868575,-0.3509947513167217
0.8808002222839678,-0.3691253465116461
0.8835787718810781,-0.34015453063883655
0.8863573214781885,-0.3381758875069587
0.8891358710752988,-0.3927594697184535
0.8919144206724091,-0.39535422790236396
0.8946929702695193,-0.27976347411697317
0.8974715198666297,-0.38937316632317204
0.90025006946374,-0.4089922125391938
0.9030286190608503,-0.3173715618550302
0.9058071686579606,-0.2947074783113646
0.908585718255071,-0.04598185163198695
0.9113642678521813,-0.33475485912356495
0.9141428174492915,-0.16250884075546074
0.9169213670464018,-0.17458788366325334
0.9196999166435121,-0.3605970329881929
0.9224784662406225,-0.1566993942585732
0.9252570158377328,-0.34466358474200837
0.9280355654348431,-0.48437460922355
0.9308141150319534,-0.14994071646980284
0.9335926646290637,-0.37821283260790983
0.936371214226174,-0.14951967797448482
0.9391497638232843,-0.25494424983005565
0.9419283134203946,-0.012461261904358922
0.944706863017505,-0.06338420550798321
0.9474854126146153,-0.20734064564679375
0.9502639622117256,-0.22250337136221413
0.9530425118088358,-0.2667980450602652
0.9558210614059461,-0.1811089505626817
0.9585996110030565,-0.15663685962808932
0.9613781606001668,-0.1566160923487647
0.9641567101972771,-0.09598516198195942
0.9669352597943874,-0.04527817707190861
0.9697138093914978,-0.059608228525147626
0.972492358988608,-0.16240258992671275
0.9752709085857183,-0.22115566083260157
0.9780494581828286,0.06771193817635608
0.980828007779939,-0.12902994738322587
0.9836065573770493,-0.11663985856218188
0.9863851069741596,-0.0948392305998694
0.9891636565712699,-0.21832403493718905
0.9919422061683801,-0.07310089318638169
0.9947207557654905,-0.06454777507118914
0.9974993053626008,0.0541799891799861
1.000277854959711,0.07071862156750812
1.0030564045568213,0.00997847683293881
1.0058349541539318,0.11151178030205217
1.008613503751042,0.06104341057007736
1.0113920533481524,0.03419042699868742
1.0141706029452626,0.06055228247645392
1.016949152542373,0.034081393465543064
1.0197277021394833,0.02233287058726449
1.0225062517365935,0.04369670669534137
1.025284801333704,-0.03370031216133253
1.0280633509308141,0.1157516438506065
1.0308419005279246,-0.003024966835021417
1.0336204501250348,0.18900109523034841
1.0363989997221452,0.08841073296262467
1.0391775493192554,0.12679016259316817
1.0419560989163656,0.17967128103213786
1.044734648513476,0.20302627996320882
1.0475131981105863,-0.01000254862357497
1.0502917477076967,0.13468956267259422
1.053070297304807,0.2516706030094593
1.0558488469019174,0.00206503346379619
1.0586273964990276,0.21877418247723465
1.0614059460961378,-0.037394642749333934
1.0641844956932482,0.0939693933248417
1.0669630452903585,0.2080816266145955
1.069741594887469,0.04648331341244277
1.072520144484579,0.12147534175930697
1.0752986940816895,0.08064744723771697
1.0780772436787998,0.4003795355770041
1.08085579327591,0.259652116698793
1.0836343428730204,0.30754753653837896
1.0864128924701306,0.23606372209511967
1.089191442067241,0.23042204673472966
1.0919699916643513,0.11147079255571701
1.0947485412614617,0.2512042242662195
1.097527090858572,0.21142303212311325
1.1003056404556821,0.3804612925184365
1.1030841900527926,0.4157859246527688
1.1058627396499028,0.45524850301820324
1.1086412892470132,0.4006666669424623
1.1114198388441234,0.2622707900522396
1.1141983884412339,0.2171730155588542
1.116976938038344,0.4119553627647268
1.1197554876354543,0.3773424677393983
1.1225340372325647,0.1711793353197767
1.125312586829675,0.3897952808590732
1.1280911364267854,0.4418050379600359
1.1308696860238956,0.3722417407188237
1.133648235621006,0.35372828525879724
1.1364267852181162,0.29723982516388375
1.1392053348152265,0.2390070176556142
1.141983884412337,0.4692291645799026
1.144762434009447,0.36370818741536576
1.1475409836065575,0.37657295621549086
1.1503195332036678,0.5783698444440846
1.1530980828007782,0.47860247454831795
1.1558766323978884,0.4521644962811995
1.1586551819949986,0.4340913006946594
1.161433731592109,0.576559758116271
1.1642122811892193,0.6010649575979605
1.1669908307863297,0.5264715103233096
1.16976938038344,0.4960263025457683
1.1725479299805504,0.23249294710668383
1.1753264795776606,0.45834015840947195
1.1781050291747708,0.43683606266301067
1.1808835787718812,0.462983768280637
1.1836621283689914,0.5514964971098392
1.1864406779661019,0.186688272216251
1.189219227563212,0.40704848588288056
1.1919977771603223,0.49415241776114266
1.1947763267574327,0.42351733754601295
1.197554876354543,0.33140788306930363
1.2003334259516534,0.5627472548251915
1.2031119755487636,0.5061454791193989
1.205890525145874,0.38380938985995294
1.2086690747429842,0.5147165514646883
1.2114476243400945,0.5675611065073816
1.214226173937205,0.48795156373152127
1.217004723534315,0.5693499871722021
1.2197832731314255,0.49884160569633584
1.2225618227285358,0.45306512003515176
1.2253403723256462,0.37806826630671386
1.2281189219227564,0.4866889769343251
1.2308974715198666,0.5158321315612022
1.233676021116977,0.5849556048894105
1.2364545707140873,0.48667948422444957
1.2392331203111977,0.544597856126766
1.242011669908308,0.40290911764935
1.2447902195054183,0.4214692293810233
1.2475687691025286,0.4889027331481954
1.2503473186996388,0.39453596302883737
1.2531258682967492,0.5819283504085937
1.2559044178938594,0.5459689967570935
1.2586829674909699,0.5271656527780505
1.26146151708808,0.532594438615738
1.2642400666851905,0.7001043374930385
1.2670186162823007,0.45025773787141266
1.269797165879411,0.27599268435206137
1.2725757154765214,0.5149082767534862
1.2753542650736316,0.4886084881605614
1.278132814670742,0.44045706331185214
1.2809113642678522,0.392716091985578
1.2836899138649627,0.4449207118127252
1.2864684634620729,0.5050651049315142
1.289247013059183,0.43459278354838926
1.2920255626562935,0.723915233628015
1.2948041122534037,0.38426773194147473
1.2975826618505142,0.39850834738270274
1.3003612114476244,0.2463143636824719
1.3031397610447348,0.4975362694473672
1.305918310641845,0.26781465154566053
1.3086968602389553,0.41243425725625665
1.3114754098360657,0.43559493066969174
1.314253959433176,0.3888302890355124
1.3170325090302863,0.6301913165441827
1.3198110586273966,0.5521053792257657
1.322589608224507,0.5808035559558755
1.3253681578216172,0.35673510250555257
1.3281467074187274,0.5537878872149395
1.3309252570158379,0.4863456860677298
1.333703806612948,0.5095701860945299
1.3364823562100585,0.5309256784484397
1.3392609058071687,0.33252723546201013
1.3420394554042792,0.376264517942266
1.3448180050013894,0.5001209913294387
1.3475965545984996,0.14333845480283375
1.35037510419561,0.5551475220250555
1.3531536537927202,0.45391919561890215
1.3559322033898307,0.38870538183529735
1.3587107529869409,0.4098764699893518
1.3614893025840513,0.2792639014720301
1.3642678521811615,0.34157831470335354
1.3670464017782717,0.48080153491472166
1.3698249513753822,0.4946627444077709
1.3726035009724924,0.6284591966881745
1.3753820505696028,0.3453112031487837
1.378160600166713,0.2806077547762437
1.3809391497638235,0.28869344188686585
1.3837176993609337,0.23186277751277623
1.386496248958044,0.3193299213304572
1.3892747985551543,0.35873737391143456
1.3920533481522646,0.310290966111393
1.394831897749375,0.41650532818832864
1.3976104473464852,0.2765109852223762
1.4003889969435956,0.258158008700398
1.4031675465407059,0.22765746415721935
1.405946096137816,0.11531499606143358
1.4087246457349265,0.11451090823993226
1.4115031953320367,0.1459984368100162
1.4142817449291472,0.38660315073319973
1.4170602945262574,0.33845432082646165
1.4198388441233678,0.3788167820358508
1.422617393720478,0.1004177424180634
1.4253959433175882,0.0290237631515938
1.4281744929146987,0.15205907899380589
1.4309530425118089,0.22775862367341038
1.4337315921089193,0.25209371572227596
1.4365101417060295,0.29900822988116077
1.43928869130314,0.21456611598309439
1.4420672409002502,0.35227543059059563
1.4448457904973604,0.14756413478760075
1.4476243400944708,0.07028117243575029
1.450402889691581,-0.01481758491150817
1.4531814392886915,0.056075519317360045
1.4559599888858017,0.16080868509627705
1.4587385384829121,0.0393074652726159
1.4615170880800223,0.21339727295705774
1.4642956376771326,0.25246284374077094
1.467074187274243,-0.13425547144049294
1.4698527368713532,0.18055029329461048
1.4726312864684636,-0.13840219189509814
1.4754098360655739,0.11709519386105972
1.4781883856626843,0.19079596784577024
1.4809669352597945,0.06613732601471431
1.4837454848569047,-0.0769925785751478
1.4865240344540152,-0.01625769483416257
1.4893025840511254,0.00741708016193798
1.4920811336482358,0.006643110520077794
1.494859683245346,-0.00414371012995576
1.4976382328424565,-0.003568839890070147
1.5004167824395667,0.020038645737262283
1.5031953320366769,-0.13089512265654296
1.5059738816337873,-0.042965079102273006
1.5087524312308975,0.12434340068560569
1.511530980828008,-0.07465850274464547
1.5143095304251182,-0.08927778266796094
1.5170880800222286,0.05423902689734414
1.5198666296193388,-0.3181693699579185
1.522645179216449,0.04723572972277633
1.5254237288135595,-0.14272212381005323
1.5282022784106697,-0.07174426876264095
1.5309808280077801,-0.08708350607068575
1.5337593776048903,-0.011017868500952543
1.5365379272020008,-0.14054111134467323
1.539316476799111,-0.1900664929244269
1.5420950263962212,-0.0009243502783512214
1.5448735759933316,-0.3755314882987586
1.5476521255904419,-0.14544346659963905
1.5504306751875523,-0.29058725736392904
1.5532092247846625,-0.2402224013030028
1.555987774381773,0.02884026187520533
1.5587663239788832,-0.1849127837398809
1.5615448735759934,-0.1690591078473935
1.5643234231731038,-0.3747777286243462
1.567101972770214,-0.27752134834144293
1.5698805223673244,-0.19289421887233774
1.5726590719644347,-0.184942485357225
1.575437621561545,-0.16653071610148557
1.5782161711586553,-0.23508814205380626
1.5809947207557655,-0.19091015862022934
1.583773270352876,-0.20581778833807424
1.5865518199499862,-0.44167886158333325
1.5893303695470966,-0.2624342413815215
1.5921089191442068,-0.1966934535916174
1.5948874687413173,-0.22176124100208233
1.5976660183384275,-0.32431506632111695
1.6004445679355377,-0.3755840435627582
1.6032231175326481,-0.4138548764062778
1.6060016671297583,-0.32203932582289096
1.6087802167268688,-0.20244202084063828
1.611558766323979,-0.517650269106681
1.6143373159210894,-0.3950806000583451
1.6171158655181996,-0.4495929406051242
1.6198944151153098,-0.26353592322021674
1.6226729647124203,-0.403777374217716
1.6254515143095305,-0.4016187449280125
1.628230063906641,-0.38235044275288305
1.6310086135037511,-0.32210674710496007
1.6337871631008616,-0.41176381242833227
1.6365657126979718,-0.6829045207490041
1.639344262295082,-0.32960903387954804
1.6421228118921924,-0.34556891809042567
1.6449013614893027,-0.41684160428081124
1.647679911086413,-0.5085850976946197
1.6504584606835233,-0.3701753918488374
1.6532370102806337,-0.3724782736558517
1.656015559877744,-0.4623284575212737
1.6587941094748542,-0.44179507616862335
1.6615726590719646,-0.5178062948899103
1.6643512086690748,-0.44718880211278317
1.6671297582661853,-0.5887812249516735
1.6699083078632955,-0.39628261156520916
1.6726868574604057,-0.5365940483648197
1.6754654070575161,-0.4223548298924919
1.6782439566546263,-0.590633399937667
1.6810225062517368,-0.5127776746816757
1.683801055848847,-0.46841735224476705
1.6865796054459574,-0.6268954982900551
1.6893581550430676,-0.4526273852225248
1.6921367046401778,-0.5052321234795194
1.6949152542372883,-0.6445857531164398
1.6976938038343985,-0.6035638220563585
1.700472353431509,-0.4154727180796973
1.7032509030286191,-0.38902923763562997
1.7060294526257296,-0.4942299472728829
1.7088080022228398,-0.4428705385933037
1.71158655181995,-0.4631226860477716
1.7143651014170604,-0.4545570944063249
1.7171436510141707,-0.36078475648737623
1.719922200611281,-0.6417976078931422
1.7227007502083913,-0.4250166294345088
1.7254792998055017,-0.5322783795908834
1.728257849402612,-0.5177675743885478
1.7310363989997222,-0.526679881206373
1.7338149485968326,-0.5349315380034255
1.7365934981939428,-0.6208467614985375
1.7393720477910533,-0.4805516892166416
1.7421505973881635,-0.33229772283806264
1.744929146985274,-0.5053595409435018
1.7477076965823841,-0.5000866438043334
1.7504862461794943,-0.5687275701941393
1.7532647957766048,-0.5116422592886124
1.756043345373715,-0.4530229427825291
1.7588218949708254,-0.5362563305517667
1.7616004445679356,-0.5440528362353029
1.764378994165046,-0.4576343388868016
1.7671575437621563,-0.588897862674986
1.7699360933592665,-0.4708328109406506
1.772714642956377,-0.4128841863666123
1.7754931925534871,-0.3576045642634553
1.7782717421505976,-0.5011702327699469
1.7810502917477078,-0.35375493017315696
1.7838288413448182,-0.38530678906076476
1.7866073909419284,-0.5864532052514267
1.7893859405390387,-0.6065615797360484
1.792164490136149,-0.5130521327102223
1.7949430397332593,-0.3773031871577847
1.7977215893303697,-0.48492005079372724
1.80050013892748,-0.5351061291410372
1.8032786885245904,-0.3170202963869744
1.8060572381217006,-0.4406144763756832
1.8088357877188108,-0.6982816292623781
1.8116143373159213,-0.4312813208337448
1.8143928869130315,-0.40762739191487163
1.817171436510142,-0.43356457182777136
1.8199499861072521,-0.4075091937085984
1.8227285357043626,-0.45542502456461276
1.8255070853014728,-0.5766173570215234
1.828285634898583,-0.47779291784827504
1.8310641844956934,-0.5310945215912166
1.8338427340928036,-0.5254844115591107
1.836621283689914,-0.5540628052129069
1.8393998332870243,-0.37792233983295076
1.8421783828841347,-0.408667939647775
1.844956932481245,-0.458432858482249
1.8477354820783551,-0.47358282145112374
1.8505140316754656,-0.40589949800956443
1.8532925812725758,-0.2904228777770981
1.8560711308696862,-0.5934276788434407
1.8588496804667964,-0.34986243191273164
1.8616282300639069,-0.43654714098416014
1.864406779661017,-0.5647439694260141
1.8671853292581273,-0.5650504507139462
1.8699638788552377,-0.4558403347202579
1.872742428452348,-0.33658176180618854
1.8755209780494584,-0.31308788282996647
1.8782995276465686,-0.44004639000027546
1.881078077243679,-0.23809469139002545
1.8838566268407893,-0.1910434357590077
1.8866351764378995,-0.28717652622452805
1.88941372603501,-0.37926925355493674
1.8921922756321201,-0.20093330179063454
1.8949708252292305,-0.2309863739625681
1.8977493748263408,-0.21284250301590452
1.9005279244234512,-0.35819560559514824
1.9033064740205614,-0.5688815197133676
1.9060850236176716,-0.06653680625889741
1.908863573214782,-0.43200879361254696
1.9116421228118923,-0.2671202343017806
1.9144206724090027,-0.018011043344806438
1.917199222006113,-0.21549200468869883
1.9199777716032234,-0.14601338209135728
1.9227563212003336,-0.3834926026692842
1.9255348707974438,-0.40326346689328596
1.9283134203945542,-0.27094214963044755
1.9310919699916644,-0.10070565419074406
1.9338705195887749,-0.23645039287468994
1.936649069185885,-0.27327238853844776
1.9394276187829955,-0.16593626692283378
1.9422061683801057,-0.06940710604239188
1.944984717977216,-0.3139081508318405
1.9477632675743264,-0.2822302995050223
1.9505418171714366,-0.23175567165472907
1.953320366768547,-0.03509105756740433
1.9560989163656572,-0.11269483398494518
1.9588774659627677,0.08545776681923548
1.961656015559878,-0.02565465148938903
1.964434565156988,-0.11431403169820632
1.9672131147540985,0.024231750745776645
1.9699916643512088,-0.07256667925662996
1.9727702139483192,-0.15562030046431274
1.9755487635454294,-0.008516520197356159
1.9783273131425398,-0.13750918955590657
1.98110586273965,-0.0882580664602425
1.9838844123367603,0.08223612951620149
1.9866629619338707,-0.051978668219122844
1.989441511530981,-0.11346028269061303
1.9922200611280914,-0.07086543521108471
1.9949986107252016,0.08646931663853522
1.997777160322312,-0.06223709711566553
2.000555709919422,-0.036941274032018544
2.0033342595165324,-0.04055515496967087
2.0061128091136426,0.03759178447705447
2.0088913587107533,-0.010630476468497626
2.0116699083078635,-0.1235543497740039
2.0144484579049737,-0.04338924733412105
2.017227007502084,-0.03926428085288242
2.020005557099194,0.18701587566880346
2.022784106696305,0.1526015506132048
2.025562656293415,0.13868855237283884
2.0283412058905252,0.0380308798128212
2.0311197554876355,0.015564661174172337
2.033898305084746,0.054939551649077045
2.0366768546818563,0.00901858551056603
2.0394554042789665,0.37240711110546626
2.0422339538760768,-0.09340200915011967
2.045012503473187,0.19593412721942008
2.0477910530702976,0.019438635128820964
2.050569602667408,0.14577503205317954
2.053348152264518,0.06567709389181653
2.0561267018616283,0.054932169611180165
2.0589052514587385,0.06684057965799378
2.061683801055849,0.36446884662730195
2.0644623506529594,0.18372381636920956
2.0672409002500696,0.1284448181342991
2.07001944984718,0.26852362869807866
2.0727979994442904,0.22184485731462
2.0755765490414007,0.30061099713614325
2.078355098638511,0.053909976154329825
2.081133648235621,0.27435202260436786
2.0839121978327313,0.3288427427574247
2.086690747429842,0.09291838258319635
2.089469297026952,0.3113237311910737
2.0922478466240624,0.44346712620628725
2.0950263962211726,0.27962450135301636
2.097804945818283,0.3704264916538127
2.1005834954153935,0.36243070576303765
2.1033620450125037,0.23162083007815293
2.106140594609614,0.3132536559379828
2.108919144206724,0.15938883291971132
2.1116976938038348,0.27767298475093827
2.114476243400945,0.3559886867557927
2.117254792998055,0.4082461391727381
2.1200333425951654,0.34481111660438873
2.1228118921922756,0.4206577503196223
2.1255904417893863,0.2445719651857265
2.1283689913864965,0.3507879135442095
2.1311475409836067,0.36887062166740764
2.133926090580717,0.557775013683369
2.136704640177827,0.3571588027479257
2.139483189774938,0.3343180020755426
2.142261739372048,0.39188188368807303
2.145040288969158,0.3032437256247004
2.1478188385662684,0.4197183288665635
2.150597388163379,0.3691032495613318
2.1533759377604893,0.2315182226397539
2.1561544873575995,0.4097093707719247
2.1589330369547097,0.38860410853423927
2.16171158655182,0.26177836335211424
2.1644901361489306,0.42284001635520185
2.167268685746041,0.582890847424584
2.170047235343151,0.4903551850058975
2.1728257849402612,0.5035535267015111
2.1756043345373715,0.3122123098440118
2.178382884134482,0.4979169525182797
2.1811614337315923,0.4687999872262602
2.1839399833287025,0.5104491104326787
2.1867185329258128,0.503257556308208
2.1894970825229234,0.3283262276318818
2.1922756321200336,0.46333231487989257
2.195054181717144,0.39471093008606184
2.197832731314254,0.4683718288870393
2.2006112809113643,0.38637809146559454
2.203389830508475,0.6099580558951028
2.206168380105585,0.3952607143051462
2.2089469297026953,0.3935640246409147
2.2117254792998056,0.49306982016985207
2.2145040288969158,0.37990620772264205
2.2172825784940264,0.44700610442472494
2.2200611280911366,0.40818311400929047
2.222839677688247,0.6338542180371143
2.225618227285357,0.5727246563319967
2.2283967768824677,0.4896539790148475
2.231175326479578,0.4573848950655689
2.233953876076688,0.5915527063863422
2.2367324256737984,0.538784081967068
2.2395109752709086,0.5487197831141725
2.2422895248680192,0.49679412895662617
2.2450680744651295,0.33093694926631184
2.2478466240622397,0.48870763681094564
2.25062517365935,0.4467471506271
2.25340372325646,0.5643911890602413
2.2561822728535708,0.6008070695372958
2.258960822450681,0.4334126117494887
2.261739372047791,0.5454789816219513
2.2645179216449014,0.6715091248006947
2.267296471242012,0.43027896388933157
2.2700750208391223,0.6642199304035186
2.2728535704362325,0.409595513294786
2.2756321200333427,0.4958255940605266
2.278410669630453,0.4909401603491794
2.2811892192275636,0.4915797466173472
2.283967768824674,0.40488771482453945
2.286746318421784,0.4276139390927096
2.289524868018894,0.4178886055279894
2.2923034176160044,0.5151375640249116
2.295081967213115,0.5130784482868318
2.2978605168102253,0.7001566856108807
2.3006390664073355,0.6120029177307313
2.3034176160044457,0.4211167167899024
2.3061961656015564,0.5016411400112654
2.3089747151986666,0.5657761256062577
2.311753264795777,0.46589261244551655
2.314531814392887,0.4524953130551344
2.3173103639899972,0.4611039724756013
2.320088913587108,0.539022185475196
2.322867463184218,0.36367266484583655
2.3256460127813283,0.41201126996566306
2.3284245623784385,0.4875595329577169
2.3312031119755487,0.4674646671696668
2.3339816615726594,0.4559489963882431
2.3367602111697696,0.3905497024689859
2.33953876076688,0.5201921946077447
2.34231731036399,0.6316053342077279
2.3450958599611007,0.4540124884374953
2.347874409558211,0.38907971172388306
2.350652959155321,0.4788733826393969
2.3534315087524313,0.344165144779622
2.3562100583495416,0.3177671027578992
2.358988607946652,0.3905550430430973
2.3617671575437624,0.12341450301187057
2.3645457071408726,0.26060279561171923
2.367324256737983,0.3353907158167797
2.370102806335093,0.2289242598394248
2.3728813559322037,0.254964059959944
2.375659905529314,0.3084095804206777
2.378438455126424,0.18153662090174244
2.3812170047235344,0.2988693040419941
2.3839955543206446,0.2794893353310802
2.3867741039177552,0.32899524435488003
2.3895526535148655,0.4352120017598003
2.3923312031119757,0.3302854491865406
2.395109752709086,0.30828721200768305
2.3978883023061965,0.3091791403765602
2.4006668519033068,0.3149344568450545
2.403445401500417,0.18339374418238918
2.406223951097527,0.2663756236612942
2.4090025006946374,0.3014291436152313
2.411781050291748,0.1260964252920947
2.4145595998888583,0.34227591051972694
2.4173381494859685,0.3563084811540289
2.4201166990830787,0.17741790106610206
2.422895248680189,0.2087330267084112
2.4256737982772996,0.13728810460758292
2.42845234787441,0.2872169123578225
2.43123089747152,0.10326213833412509
2.43400944706863,0.1791783531800513
2.436787996665741,0.10751436012164263
2.439566546262851,0.19042312911104847
2.4423450958599613,-0.0022303592195414834
2.4451236454570715,0.3016495941152072
2.4479021950541817,0.0643021407140647
2.4506807446512924,0.15846260758513428
2.4534592942484026,0.12288472032726633
2.456237843845513,0.059545529207285286
2.459016393442623,0.03855754645702068
2.4617949430397332,0.21251518499467403
2.464573492636844,0.057814811145900875
2.467352042233954,0.12896578757682636
2.4701305918310643,0.013137937866585778
2.4729091414281745,0.01997990840645375
2.475687691025285,0.12330737759935784
2.4784662406223954,0.16048493480464798
2.4812447902195056,0.041253312024234864
2.484023339816616,-0.09208408426155679
2.486801889413726,0.24121118968744779
2.4895804390108367,-0.05294429289980931
2.492358988607947,-0.13016301534729716
2.495137538205057,0.2747159567004665
2.4979160878021673,-0.033856613198806285
2.5006946373992776,-0.14835552964822785
2.503473186996388,-0.07925444940210172
2.5062517365934984,0.017119130260608104
2.5090302861906086,-0.009323105755797215
2.511808835787719,-0.12223744163119019
2.5145873853848295,0.13650887420354468
2.5173659349819397,-0.10660646976343402
2.52014448457905,-0.18158558240114764
2.52292303417616,0.024303231801767064
2.5257015837732704,0.05251286472664715
2.528480133370381,-0.17074553934735834
2.5312586829674912,-0.23770664436790837
2.5340372325646014,-0.0030740359318061072
2.5368157821617117,-0.31936382909449346
2.539594331758822,-0.24577230158173954
2.5423728813559325,-0.03480666710873784
2.5451514309530427,-0.14548758932196235
2.547929980550153,-0.1747044672550424
2.550708530147263,-0.12134226762848632
2.553487079744374,-0.1801668308333472
2.556265629341484,-0.3029732660761878
2.5590441789385943,-0.05365950599860089
2.5618227285357045,-0.056872835665943866
2.5646012781328147,-0.1768904676440382
2.5673798277299253,-0.20089963494439925
2.5701583773270356,0.02062273722459801
2.5729369269241458,-0.24884471329919305
2.575715476521256,-0.25495339485513707
2.578494026118366,-0.20027204654670785
2.581272575715477,-0.09724030332289438
2.584051125312587,-0.09267327136052314
2.5868296749096973,-0.28530866866511606
2.5896082245068075,-0.23604026426167002
2.592386774103918,-0.4120223815246514
2.5951653237010284,-0.3126687168963788
2.5979438732981386,-0.3726714304622872
2.600722422895249,-0.39640887882005904
2.603500972492359,-0.13456121366061885
2.6062795220894697,-0.38884847081175333
2.60905807168658,-0.36958694916749885
2.61183662128369,-0.2865515932067989
2.6146151708808003,-0.19996557372857884
2.6173937204779105,-0.28814771592445254
2.620172270075021,-0.06673236055352455
2.6229508196721314,-0.35643887520828677
2.6257293692692416,-0.32929827943352336
2.628507918866352,-0.33369945380404453
2.6312864684634625,-0.2237340759607181
2.6340650180605727,-0.3223826862331672
2.636843567657683,-0.3904834030436515
2.639622117254793,-0.47924767545969627
2.6424006668519033,-0.3655756661795673
2.645179216449014,-0.25528785455147635
2.647957766046124,-0.4417423265342336
2.6507363156432344,-0.3529694686128824
2.6535148652403446,-0.3862850361074557
2.656293414837455,-0.3294586000322823
2.6590719644345655,-0.5010699605080957
2.6618505140316757,-0.19058571557605114
2.664629063628786,-0.5576927541266471
2.667407613225896,-0.47072699033007415
2.670186162823007,-0.3446255386849573
2.672964712420117,-0.41289076126075985
2.6757432620172272,-0.36355986410780766
2.6785218116143374,-0.5000270132813984
2.6813003612114477,-0.4616183004511758
2.6840789108085583,-0.4564972144626504
2.6868574604056685,-0.30423755845530015
2.6896360100027787,-0.3954231716052447
2.692414559599889,-0.38795985784495796
2.695193109196999,-0.5364381496714716
2.69797165879411,-0.37663230542960624
2.70075020839122,-0.453693112680532
2.7035287579883303,-0.33992230584156746
2.7063073075854405,-0.2798704408860626
2.709085857182551,-0.5142459700011759
2.7118644067796613,-0.5263452596768616
2.7146429563767716,-0.574116964269952
2.7174215059738818,-0.5039192903505255
2.720200055570992,-0.5294635500869894
2.7229786051681026,-0.4568605052193114
2.725757154765213,-0.5086673684365214
2.728535704362323,-0.531619731358511
2.7313142539594333,-0.39009940047076563
2.7340928035565435,-0.5912927075868066
2.736871353153654,-0.45498903057383233
2.7396499027507644,-0.5395372687119239
2.7424284523478746,-0.42699744824178465
2.745207001944985,-0.36124712971559103
2.7479855515420955,-0.530269774996878
2.7507641011392057,-0.45589094690978604
2.753542650736316,-0.4819968513121314
2.756321200333426,-0.5795479263481467
2.7590997499305363,-0.4751042146160003
2.761878299527647,-0.46969605378305523
2.764656849124757,-0.4565941957170817
2.7674353987218674,-0.5168425971459418
2.7702139483189776,-0.4865534311563963
2.772992497916088,-0.6095525473528883
2.7757710475131985,-0.529270850062882
2.7785495971103087,-0.4363807681241545
2.781328146707419,-0.4010972966824534
2.784106696304529,-0.5307943703950173
2.7868852459016398,-0.4761607839068625
2.78966379549875,-0.4617478379434265
2.79244234509586,-0.46217847776947174
2.7952208946929704,-0.4258754129231498
2.7979994442900806,-0.6592405539881795
2.8007779938871913,-0.4796997059816631
2.8035565434843015,-0.44805374776569384
2.8063350930814117,-0.5690361091027589
2.809113642678522,-0.2985075275442649
2.811892192275632,-0.4465111971735742
2.814670741872743,-0.3029466638319614
2.817449291469853,-0.5348194738895902
2.8202278410669632,-0.5428383089760511
2.8230063906640734,-0.4258864067381519
2.825784940261184,-0.6122471611673536
2.8285634898582943,-0.418813024698584
2.8313420394554045,-0.4263847223313177
2.8341205890525147,-0.33020426300875727
2.836899138649625,-0.35719920801603383
2.8396776882467356,-0.4644533950134039
2.842456237843846,-0.5277288115939325
2.845234787440956,-0.2418947188163285
2.8480133370380663,-0.4873569259509365
2.8507918866351765,-0.5075936683987119
2.853570436232287,-0.5062997689451256
2.8563489858293973,-0.2807353363572796
2.8591275354265075,-0.43888797791807493
2.8619060850236178,-0.4567825448151421
2.864684634620728,-0.3619410099375875
2.8674631842178386,-0.39058784940579383
2.870241733814949,-0.4317735745238792
2.873020283412059,-0.2825246032568645
2.8757988330091693,-0.24524283461856292
2.87857738260628,-0.24698605336975848
2.88135593220339,-0.262463951168688
2.8841344818005004,-0.2924281112977178
2.8869130313976106,-0.5037128135611106
2.889691580994721,-0.15253288633688275
2.8924701305918314,-0.2824956352748118
2.8952486801889417,-0.24502020015823392
2.898027229786052,-0.1873876848947143
2.900805779383162,-0.14850564763667576
2.9035843289802723,-0.2428691305578752
2.906362878577383,-0.2339355762250486
2.909141428174493,-0.3301093071883881
2.9119199777716034,-0.25949224433453033
2.9146985273687136,-0.3407515892479474
2.9174770769658243,-0.3197859392165133
2.9202556265629345,-0.32953022731102594
2.9230341761600447,-0.2480828776392942
2.925812725757155,-0.11980801604110831
2.928591275354265,0.10021178532269992
2.9313698249513758,-0.19003798322451784
2.934148374548486,-0.33586781559437995
2.936926924145596,-0.06650546501868693
2.9397054737427064,-0.21500065333656357
2.9424840233398166,-0.24284523235159655
2.9452625729369273,-0.1476076522654706
2.9480411225340375,-0.2844119036364196
2.9508196721311477,-0.12981109976289845
2.953598221728258,-0.15255659706227603
2.9563767713253686,-0.1254990800953973
2.959155320922479,-0.08877182355703866
2.961933870519589,-0.11170212090322379
2.964712420116699,-0.10831933438463204
2.9674909697138094,-0.0729899756579198
2.97026951931092,-0.051318738583044185
2.9730480689080303,-0.18741611946331485
2.9758266185051405,-0.21865038845536555
2.9786051681022507,-0.07317540004434678
2.981383717699361,-0.20162505233525013
2.9841622672964716,-0.04092048045265273
2.986940816893582,0.052894075298017575
2.989719366490692,0.028436060225248423
2.9924979160878022,-0.12837680557083145
2.995276465684913,-0.10086348748482553
2.998055015282023,0.026719931889797186
3.0008335648791333,-0.03751107118503057
3.0036121144762435,-0.020318711365854017
3.0063906640733538,0.07976211680351754
3.0091692136704644,-0.06993866748944812
3.0119477632675746,-0.0026237105446383704
3.014726312864685,-0.03381015771059635
3.017504862461795,-0.049430610661053816
3.0202834120589053,-0.022157957463418754
3.023061961656016,0.13994423193755157
3.025840511253126,0.08600620311291636
3.0286190608502364,0.0015096169365314827
3.0313976104473466,0.07488977964852801
3.0341761600444572,-0.05733639803858104
3.0369547096415674,0.041724971707927605
3.0397332592386777,0.33849055901829084
3.042511808835788,0.12294792333622243
3.045290358432898,0.21353718139141947
3.0480689080300087,0.14217864934118
3.050847457627119,0.19185527953515616
3.053626007224229,0.23162717214410747
3.0564045568213394,0.06305233020772123
3.0591831064184496,0.17858010760009105
3.0619616560155603,0.3476646258009273
3.0647402056126705,0.1182745840078557
3.0675187552097807,0.1491668935019624
3.070297304806891,0.18296526417052922
3.0730758544040016,0.24849517050671793
3.0758544040011118,0.281875384018969
3.078632953598222,0.3638456863023706
3.081411503195332,0.2947030028592333
3.0841900527924424,0.24612192999973367
3.086968602389553,0.3857411145679628
3.0897471519866633,0.3376534738319764
3.0925257015837735,0.12501094014533587
3.0953042511808837,0.5344685500850024
3.098082800777994,0.46599080276114535
3.1008613503751046,0.279256098838512
3.103639899972215,0.3408571502576129
3.106418449569325,0.442398265862527
3.109196999166435,0.29954409235078
3.111975548763546,0.3965045883542316
3.114754098360656,0.4405339076927646
3.1175326479577663,0.2350995203359178
3.1203111975548765,0.282752393371954
3.1230897471519867,0.44142535133697325
3.1258682967490974,0.40155843751894255
3.1286468463462076,0.4539407821688549
3.131425395943318,0.35427826477387436
3.134203945540428,0.34449646828261693
3.1369824951375382,0.17928116140454378
3.139761044734649,0.2701776304369955
3.142539594331759,0.3949995745313088
3.1453181439288693,0.4781450259073955
3.1480966935259795,0.4540828817071807
3.15087524312309,0.39329438303560743
3.1536537927202004,0.3839711827669402
3.1564323423173106,0.43777075228551776
3.159210891914421,0.4286515525914801
3.161989441511531,0.5659343711657909
3.1647679911086417,0.4446436046032997
3.167546540705752,0.28626358440153465
3.170325090302862,0.3113886277967487
3.1731036398999724,0.5946429460691878
3.1758821894970826,0.3296385912217934
3.178660739094193,0.5270558462409671
3.1814392886913034,0.4274829557191845
3.1842178382884136,0.44092006089584124
3.186996387885524,0.4479187160123416
3.1897749374826345,0.5867659899430486
3.1925534870797447,0.4484972021564843
3.195332036676855,0.4674607778062354
3.198110586273965,0.32058018970941893
3.2008891358710754,0.49705306220220474
3.203667685468186,0.5320665414777721
3.2064462350652962,0.5053091509549564
3.2092247846624065,0.6234698021543544
3.2120033342595167,0.49133547912859366
3.214781883856627,0.5177061896476042
3.2175604334537375,0.6545002716871273
3.2203389830508478,0.33634064336044567
3.223117532647958,0.44730196841917674
3.225896082245068,0.6368925984672282
3.228674631842179,0.5891312130065202
3.231453181439289,0.5644468594075549
3.2342317310363993,0.580813118878909
3.2370102806335095,0.531042219067354
3.2397888302306197,0.6621310119154385
3.2425673798277304,0.5372307811872498
3.2453459294248406,0.5237729465110721
3.248124479021951,0.5158611507017432
3.250903028619061,0.5192783473022464
3.253681578216171,0.3841645050860587
3.256460127813282,0.5766554713132066
3.259238677410392,0.4861138612156242
3.2620172270075023,0.6807668802908671
3.2647957766046125,0.49027590406345006
3.267574326201723,0.5390466286995111
3.2703528757988334,0.5205774066900699
3.2731314253959436,0.4321727271997343
3.275909974993054,0.5926025733822204
3.278688524590164,0.68240533984276
3.2814670741872747,0.4887814186085376
3.284245623784385,0.45842200612242473
3.287024173381495,0.4510288803281433
3.2898027229786053,0.2952091482025959
3.2925812725757155,0.464429958508325
3.295359822172826,0.5049300519633523
3.2981383717699364,0.5827787581927022
3.3009169213670466,0.5706349931902863
3.303695470964157,0.4301629069176943
3.3064740205612675,0.4411693131409887
3.3092525701583777,0.5781380445200741
3.312031119755488,0.4451550755388599
3.314809669352598,0.4081115018327877
3.3175882189497083,0.5948393628779474
3.320366768546819,0.5556802932662542
3.323145318143929,0.4499973781219483
3.3259238677410394,0.384800349541919
3.3287024173381496,0.23891458162358256
3.33148096693526,0.4948633593076741
3.3342595165323705,0.34191356067312284
3.3370380661294807,0.2308033386607025
3.339816615726591,0.5809544350035514
3.342595165323701,0.48253624336131684
3.3453737149208114,0.29897840873204445
3.348152264517922,0.28645301662080336
3.3509308141150322,0.48987894274674404
3.3537093637121425,0.30975255276828634
3.3564879133092527,0.521810286300549
3.3592664629063633,0.44836738305249013
3.3620450125034735,0.4347893915186417
3.3648235621005838,0.4158914123618296
3.367602111697694,0.38874466064719904
3.370380661294804,0.45171575382553397
3.373159210891915,0.31221082078270657
3.375937760489025,0.36005928279329646
3.3787163100861353,0.4203968537673263
3.3814948596832455,0.3951340660347168
3.3842734092803557,0.21286604301098522
3.3870519588774664,0.2757520883873909
3.3898305084745766,0.3444024423643252
3.392609058071687,0.2715523959170334
3.395387607668797,0.4829562990237102
3.3981661572659076,0.25921859249039947
3.400944706863018,0.2752645493860765
3.403723256460128,0.36129305521321103
3.4065018060572383,0.31018029105604433
3.4092803556543485,0.2552920878593657
3.412058905251459,0.18678046221654182
3.4148374548485694,0.2851115192774217
3.4176160044456796,0.351322349525098
3.42039455404279,0.2876994136543158
3.4231731036399,0.1542756419373931
3.4259516532370107,0.39800485524816065
3.428730202834121,0.07183456575031849
3.431508752431231,0.050322803457758414
3.4342873020283413,0.29668252870340306
3.437065851625452,0.21518514590400617
3.439844401222562,0.12956683443297903
3.4426229508196724,0.0665189705190132
3.4454015004167826,0.4002616257029883
3.448180050013893,0.17164506926150197
3.4509585996110035,0.20506169427588986
3.4537371492081137,0.17508946489510493
3.456515698805224,0.17839745380527472
3.459294248402334,0.1805006871839487
3.4620727979994443,0.19126967333468003
3.464851347596555,0.07200509127904083
3.467629897193665,0.07182981008739253
3.4704084467907754,-0.08167237559691583
3.4731869963878856,0.005807190412879609
3.4759655459849963,0.10233108458399272
3.4787440955821065,0.17108139095037483
3.4815226451792167,0.11782196260245181
3.484301194776327,0.015170079949707684
3.487079744373437,-0.0857716796063992
3.489858293970548,-0.2458963631262039
3.492636843567658,0.13829718468300622
3.4954153931647682,-0.04452192330200436
3.4981939427618784,-0.03917272624190411
3.5009724923589887,0.010102240951626047
3.5037510419560993,-0.1523391596487706
3.5065295915532095,-0.05548578073318729
3.5093081411503197,0.17312147471658224
3.51208669074743,0.012603723444179225
3.5148652403445406,-0.010707743133721914
3.517643789941651,-0.21356558230052552
3.520422339538761,0.1603774384337402
3.5232008891358713,-0.21490935781166787
3.5259794387329815,0.11097762872773968
3.528757988330092,-0.30136066343373036
3.5315365379272023,0.04210865279345821
3.5343150875243126,0.05483470540935534
3.5370936371214228,-0.19792186160763497
3.539872186718533,-0.08169794406563485
3.5426507363156436,-0.0776451767228553
3.545429285912754,-0.22216958422191205
3.548207835509864,-0.2940558890637718
3.5509863851069743,-0.2892243984000944
3.553764934704085,-0.11161238992344935
3.556543484301195,-0.1824348141009078
3.5593220338983054,-0.23851039095662813
3.5621005834954156,-0.0935050260426772
3.564879133092526,-0.14741861232958897
3.5676576826896365,-0.28175483707828697
3.5704362322867467,-0.3342490294802916
3.573214781883857,-0.16965775486545032
3.575993331480967,-0.2835296607101584
3.5787718810780773,-0.2275682032513352
3.581550430675188,-0.08750377633104825
3.584328980272298,-0.20247112208441387
3.5871075298694084,-0.34642389971408777
3.5898860794665186,-0.2515450317662498
3.5926646290636293,-0.3702080347853823
3.5954431786607395,-0.12133991565277014
3.5982217282578497,-0.34551259172153764
3.60100027785496,-0.2757020383416876
3.60377882745207,-0.2726399064859119
3.606557377049181,-0.29437969407634207
3.609335926646291,-0.5129566390244684
3.612114476243401,-0.4684442065599705
3.6148930258405114,-0.37563879629521774
3.6176715754376216,-0.30496155385785234
3.6204501250347323,-0.3570809455897655
3.6232286746318425,-0.44531142690057346
3.6260072242289527,-0.4906262172021408
3.628785773826063,-0.4020182100248446
3.6315643234231736,-0.4146784422573297
3.634342873020284,-0.3224034671365841
3.637121422617394,-0.4120613422406906
3.6398999722145042,-0.32478547137574254
3.6426785218116144,-0.45003059793696387
3.645457071408725,-0.4215517356406046
3.6482356210058353,-0.43603027538100253
3.6510141706029455,-0.48460971766356575
3.6537927202000557,-0.34888468493133773
3.656571269797166,-0.4976542948640201
3.6593498193942766,-0.4732301128584812
3.662128368991387,-0.43302086110827326
3.664906918588497,-0.5599600496374555
3.6676854681856073,-0.4670976447537551
3.670464017782718,-0.5099843915662361
3.673242567379828,-0.48178502810997015
3.6760211169769383,-0.4529432545726132
3.6787996665740486,-0.5307864409592823
3.6815782161711588,-0.4765098881022272
3.6843567657682694,-0.32720414360898287
3.6871353153653796,-0.46407997297528175
3.68991386496249,-0.3502623426180793
3.6926924145596,-0.4332859007057941
3.6954709641567103,-0.39352345205343475
3.698249513753821,-0.5512460455763224
3.701028063350931,-0.4660256635280657
3.7038066129480414,-0.4656960869356804
3.7065851625451516,-0.5427749364820627
3.7093637121422622,-0.5660734235740997
3.7121422617393725,-0.6349479092820883
3.7149208113364827,-0.33829008752270906
3.717699360933593,-0.586978317980051
3.720477910530703,-0.35680063769202197
3.7232564601278137,-0.5397070030259937
3.726035009724924,-0.580591713137497
3.728813559322034,-0.43332450147150375
3.7315921089191444,-0.5597786007387155
3.7343706585162546,-0.44074513438576257
3.7371492081133653,-0.5316521671915982
3.7399277577104755,-0.45095661252004887
3.7427063073075857,-0.5962936555222822
3.745484856904696,-0.41666370083630017
3.7482634065018066,-0.4511729677006612
3.7510419560989168,-0.5919543538863344
3.753820505696027,-0.23556237546691455
3.756599055293137,-0.4455579620302836
3.7593776048902474,-0.27008561620298965
3.762156154487358,-0.33851547492598233
3.7649347040844683,-0.5166837231664088
3.7677132536815785,-0.5381336898973708
3.7704918032786887,-0.5362072554101309
3.773270352875799,-0.6776678866289076
3.7760489024729096,-0.5629014745348652
3.77882745207002,-0.46714393826971734
3.78160600166713,-0.3375774660837893
3.7843845512642402,-0.5656536974794499
3.787163100861351,-0.39822528935984614
3.789941650458461,-0.6095964696319149
3.7927202000555713,-0.5407277084094909
3.7954987496526815,-0.5254714030861113
3.7982772992497917,-0.439991668560784
3.8010558488469024,-0.42876181285915127
3.8038343984440126,-0.37543398844524156
3.806612948041123,-0.3916160977395313
3.809391497638233,-0.44127175324755313
3.8121700472353433,-0.4232989598333014
3.814948596832454,-0.3000883543421373
3.817727146429564,-0.5065001351434391
3.8205056960266743,-0.3742619800428145
3.8232842456237845,-0.628738820252979
3.8260627952208948,-0.4028441010163798
3.8288413448180054,-0.48822026223926135
3.8316198944151156,-0.43542190158966815
3.834398444012226,-0.32732132136118386
3.837176993609336,-0.41038503064624793
3.8399555432064467,-0.33372002848159477
3.842734092803557,-0.2701229825863225
3.845512642400667,-0.37372350365000523
3.8482911919977774,-0.2905364686759648
3.8510697415948876,-0.43518010722824274
3.8538482911919982,-0.3981057511521355
3.8566268407891084,-0.44418637398464045
3.8594053903862187,-0.28214689197063136
3.862183939983329,-0.3394379549392855
3.864962489580439,-0.4258569012033868
3.8677410391775497,-0.3538386035523293
3.87051958877466,-0.2592081233881714
3.87329813837177,-0.3612404907239387
3.8760766879688804,-0.4460468003523831
3.878855237565991,-0.3316951471241299
3.8816337871631013,-0.5365705711432162
3.8844123367602115,-0.25516146497416176
3.8871908863573217,-0.3675946071596985
3.889969435954432,-0.36571704713772507
3.8927479855515426,-0.224443371450264
3.8955265351486528,-0.44166109788340746
3.898305084745763,-0.10347381498721442
3.901083634342873,-0.3391558724334961
3.9038621839399834,-0.33631602077538053
3.906640733537094,-0.174641155832201
3.9094192831342043,-0.19858245481271142
3.9121978327313145,-0.0169352388905272
3.9149763823284247,-0.27570516800100237
3.9177549319255354,-0.25907400031837774
3.9205334815226456,-0.3873384106937786
3.923312031119756,-0.2649175505134181
3.926090580716866,-0.2960803428950547
3.928869130313976,-0.2609755538520702
3.931647679911087,-0.38261340501246976
3.934426229508197,-0.03416619683618097
3.9372047791053073,-0.3338585995700918
3.9399833287024175,-0.46433125168139344
3.9427618782995277,-0.2948100213608186
3.9455404278966384,-0.2281545106229358
3.9483189774937486,-0.274477804870929
3.951097527090859,-0.04139526859977767
3.953876076687969,-0.15666667426926173
3.9566546262850797,-0.1319577820447187
3.95943317588219,-0.0650297604723167
3.9622117254793,-0.0890018554604088
3.9649902750764103,-0.011244706713505095
3.9677688246735205,-0.2115142682969769
3.970547374270631,-0.14675274891721632
3.9733259238677414,-0.016810610205832896
3.9761044734648516,-0.32824373618525393
3.978883023061962,-0.2036649091737849
3.981661572659072,-0.0073852492382380855
3.9844401222561827,-0.09682986711095351
3.987218671853293,0.05350017497135896
3.989997221450403,0.049514058079269785
3.9927757710475134,-0.14249707992111693
3.995554320644624,0.02670101131080501
3.9983328702417342,0.11493243874325461
4.001111419838844,0.018235040187214772
4.003889969435955,-0.08552700502315273
4.006668519033065,0.108882635330601
4.009447068630175,0.09320386905088725
4.012225618227285,0.09263122982532525
4.015004167824396,0.11866108148343647
4.017782717421507,-0.24371139830959812
4.020561267018617,0.15250934800071606
4.023339816615727,0.2538748446115102
4.026118366212837,0.12534931501816335
4.0288969158099475,0.10955727519325931
4.031675465407058,0.16849963409050123
4.034454015004168,0.14121957616807546
4.037232564601278,0.18108368466082586
4.040011114198388,0.12452586262848975
4.042789663795499,0.05614357323091465
4.04556821339261,0.04077660461031969
4.04834676298972,0.0497414826584785
4.05112531258683,0.02056259709227498
4.05390386218394,0.0593507332928008
4.0566824117810505,0.35045899795581137
4.059460961378161,0.25789626955183187
4.062239510975271,0.12808266397866908
4.065018060572381,0.15958674708457016
4.067796610169492,0.2178618459748356
4.0705751597666024,0.14896869714235206
4.073353709363713,0.22912661085248248
4.076132258960823,0.3079192887665059
4.078910808557933,0.23429840387516515
4.081689358155043,0.27911555515776154
4.0844679077521535,0.3417296109881718
4.087246457349264,0.233356624007211
4.090025006946374,0.29645878588127006
4.092803556543485,0.24437021845047757
4.095582106140595,0.2796994344414163
4.0983606557377055,0.2572375225939865
4.101139205334816,0.243893493738138
4.103917754931926,0.3211311419319025
4.106696304529036,0.3673013861044042
4.109474854126146,0.33206951838027815
4.1122534037232565,0.3740072401115026
4.115031953320367,0.25693804736019027
4.117810502917477,0.21685358734246213
4.120589052514588,0.38532455830340623
4.123367602111698,0.4186967203514569
4.1261461517088085,0.361076036340447
4.128924701305919,0.49696708732767036
4.131703250903029,0.45889620886338545
4.134481800500139,0.6420340357534193
4.137260350097249,0.3596327425746049
4.14003889969436,0.28544962794002215
4.14281744929147,0.3168243001924162
4.145595998888581,0.3396725511446315
4.148374548485691,0.4490890624030847
4.151153098082801,0.19082029546947823
4.1539316476799115,0.5434995500720017
4.156710197277022,0.39260662497049753
4.159488746874132,0.39662181262343316
4.162267296471242,0.3180033323765606
4.165045846068352,0.4190217575681433
4.167824395665463,0.4361437628349844
4.170602945262574,0.4268682427319326
4.173381494859684,0.4770777934167866
4.176160044456794,0.3881827264877148
4.178938594053904,0.36140213682087097
4.1817171436510145,0.5095168577344081
4.184495693248125,0.4681125437490025
4.187274242845235,0.4813859938824715
4.190052792442345,0.5708519971336403
4.192831342039455,0.3658325091248143
4.195609891636566,0.3855619154145427
4.198388441233677,0.5996613620120486
4.201166990830787,0.32836005019478387
4.203945540427897,0.3482708879327317
4.206724090025007,0.5634159485216464
4.209502639622118,0.5077206568135172
4.212281189219228,0.49654724078214235
4.215059738816338,0.47883334582333575
4.217838288413448,0.4929525689679522
4.220616838010558,0.4822918418152526
4.2233953876076695,0.628574762763376
4.22617393720478,0.45459285351727563
4.22895248680189,0.4794968015880634
4.231731036399,0.6761544656891021
4.23450958599611,0.5003845986790822
4.237288135593221,0.7216076424678928
4.240066685190331,0.4885285047788509
4.242845234787441,0.6362363517115976
4.245623784384551,0.33427659268696597
4.248402333981662,0.5153392537656115
4.2511808835787726,0.3415388807226212
4.253959433175883,0.5842907117559754
4.256737982772993,0.3782652011969565
4.259516532370103,0.5274833870342266
4.262295081967213,0.4702891755552197
4.265073631564324,0.38193884134132705
4.267852181161434,0.3349218516758875
4.270630730758544,0.4447010618842989
4.273409280355654,0.668664200132817
4.276187829952765,0.4638981532886247
4.278966379549876,0.5834638850093541
4.281744929146986,0.48438264350809884
4.284523478744096,0.5759554389246727
4.287302028341206,0.3036386366839498
4.290080577938316,0.4439097336950867
4.292859127535427,0.5769203239365494
4.295637677132537,0.4632585865474307
4.298416226729647,0.46839669588549426
4.301194776326758,0.4313087832508683
4.303973325923868,0.5864610896332398
4.306751875520979,0.4982990532035038
4.309530425118089,0.4698315084714927
4.312308974715199,0.5264745453718621
4.315087524312309,0.5175905343091188
4.3178660739094195,0.47648587374427154
4.32064462350653,0.6062507028300462
4.32342317310364,0.44170156159434987
4.32620172270075,0.4715847227931748
4.328980272297861,0.3753924119137583
4.331758821894971,0.45047623164311873
4.334537371492082,0.5898851825202233
4.337315921089192,0.36229619819906006
4.340094470686302,0.30864557864056363
4.342873020283412,0.5169351101012667
4.3456515698805225,0.3975096433934926
4.348430119477633,0.4169881052477088
4.351208669074743,0.3977536173118152
4.353987218671854,0.40493178110364686
4.356765768268964,0.4767063348607807
4.359544317866074,0.302255137562758
4.362322867463185,0.27938674257195956
4.365101417060295,0.3833415710919369
4.367879966657405,0.2083671500456296
4.370658516254515,0.22575966015602136
4.3734370658516255,0.5436765687780263
4.376215615448736,0.4265895185237862
4.378994165045847,0.34356454042731993
4.381772714642957,0.4619933655559591
4.384551264240067,0.22765215927953258
4.3873298138371775,0.2935700814069486
4.390108363434288,0.38079497323534284
4.392886913031398,0.40073894223506096
4.395665462628508,0.35609062956798343
4.398444012225618,0.043709338597816116
4.4012225618227285,0.19396850877649086
4.404001111419839,0.33133840832234257
4.40677966101695,0.24080488337591396
4.40955821061406,0.5231073874301282
4.41233676021117,0.3543422369085145
4.4151153098082805,0.3100170198148402
4.417893859405391,0.13495882381075208
4.420672409002501,0.23549387777008923
4.423450958599611,0.25544087134268684
4.426229508196721,0.3363252595053382
4.4290080577938316,0.303818295378954
4.431786607390943,0.3110966518907208
4.434565156988053,0.10743574524630396
4.437343706585163,0.333010427992503
4.440122256182273,0.045662039103892355
4.4429008057793835,0.12196752488242185
4.445679355376494,0.21043645457066099
4.448457904973604,0.14411953432039787
4.451236454570714,0.0502058671338069
4.454015004167824,0.06030946621579235
4.4567935537649355,-0.020749507828077635
4.459572103362046,0.17884400051462965
4.462350652959156,0.24323573885180652
4.465129202556266,0.09863610808930635
4.467907752153376,0.060104059014465715
4.4706863017504865,-0.05566039048873053
4.473464851347597,0.1742971474341505
4.476243400944707,0.29548715135209913
4.479021950541817,-0.11403176175407843
4.481800500138927,-0.04929240266908743
4.4845790497360385,-0.019588728556754857
4.487357599333149,-0.01675627305407388
4.490136148930259,0.05370296288111571
4.492914698527369,0.18367673403977947
4.495693248124479,0.11438813756813075
4.49847179772159,0.05756065355524123
4.5012503473187,-0.07632091195042785
4.50402889691581,-0.12461862455049083
4.50680744651292,-0.10105723422876615
4.509585996110031,0.12470959020832516
4.5123645457071415,-0.044979633446348165
4.515143095304252,-0.09218531499703164
4.517921644901362,-0.07455917146941418
4.520700194498472,0.01761343828567251
4.523478744095582,-0.204778371942612
4.526257293692693,0.05937138754008517
4.529035843289803,-0.0750659946833026
4.531814392886913,-0.1209179649284936
4.534592942484024,-0.0635386429008227
4.537371492081134,-0.09449037187750248
4.5401500416782445,-0.1592210947892317
4.542928591275355,-0.15850584944014723
4.545707140872465,-0.2285137628549033
4.548485690469575,-0.08433799392707154
4.551264240066685,-0.21148030094053397
4.554042789663796,-0.26216237253154356
4.556821339260906,-0.1581550314778486
4.559599888858016,-0.04997885142264796
4.562378438455127,-0.19582329609319454
4.565156988052237,-0.2598366040462542
4.567935537649348,-0.16661386181608473
4.570714087246458,-0.021246112903220787
4.573492636843568,-0.36795630503671295
4.576271186440678,-0.19232597194613316
4.579049736037788,-0.21774782118121855
4.581828285634899,-0.12974072075990106
4.584606835232009,-0.154365857805149
4.58738538482912,-0.2796131121147537
4.59016393442623,-0.4367998225382904
4.59294248402334,-0.1950158294086295
4.595721033620451,-0.36643156532574567
4.598499583217561,-0.38474020178926077
4.601278132814671,-0.1822965609424777
4.604056682411781,-0.3951915556214214
4.6068352320088914,-0.1707042574188515
4.609613781606002,-0.2841916900309785
4.612392331203113,-0.2925549014106067
4.615170880800223,-0.3003319519735609
4.617949430397333,-0.5013915815522105
4.620727979994443,-0.5215759916595828
4.623506529591554,-0.32866491088491445
4.626285079188664,-0.29959582681933816
4.629063628785774,-0.3542031838233119
4.631842178382884,-0.45057499154176256
4.6346207279799945,-0.37237429511095543
4.637399277577105,-0.38820081790889793
4.640177827174216,-0.4813282942958995
4.642956376771326,-0.28971282435104906
4.645734926368436,-0.5695159990917799
4.648513475965546,-0.34287166410212555
4.651292025562657,-0.36844863240035225
4.654070575159767,-0.31092084681056653
4.656849124756877,-0.5173087428629779
4.659627674353987,-0.41139533925889116
4.6624062239510975,-0.20904958196252083
4.665184773548209,-0.3644587845003159
4.667963323145319,-0.42497697102364085
4.670741872742429,-0.38535525342933485
4.673520422339539,-0.4347561048630988
4.6762989719366495,-0.22825126502581256
4.67907752153376,-0.35280838386517643
4.68185607113087,-0.46342692821794973
4.68463462072798,-0.43318708558412733
4.68741317032509,-0.5009151074081534
4.690191719922201,-0.34412461654196685
4.692970269519312,-0.6088526720661793
4.695748819116422,-0.6317059032781991
4.698527368713532,-0.3282068090653931
4.701305918310642,-0.26146804942047597
4.7040844679077525,-0.43250597002178726
4.706863017504863,-0.47047300710228057
4.709641567101973,-0.41828354633127823
4.712420116699083,-0.5508316659651955
4.715198666296193,-0.47096979569442027
4.717977215893304,-0.4860223556689808
4.720755765490415,-0.4289265619711209
4.723534315087525,-0.6489027764931534
4.726312864684635,-0.5451760498738697
4.729091414281745,-0.41119195697284494
4.7318699638788555,-0.5643187680559738
4.734648513475966,-0.5970119890360386
4.737427063073076,-0.29423342157287113
4.740205612670186,-0.4952417073701402
4.742984162267297,-0.5574060911954392
4.7457627118644075,-0.6690598493091373
4.748541261461518,-0.4270443638089026
4.751319811058628,-0.4300691928506001
4.754098360655738,-0.5297101938141503
4.756876910252848,-0.6097563394140898
4.7596554598499585,-0.5015351019974695
4.762434009447069,-0.5820604965487248
4.765212559044179,-0.5919270541862082
4.767991108641289,-0.5071300820513731
4.7707696582384,-0.6008875414955647
4.7735482078355105,-0.46987220710548105
4.776326757432621,-0.4323757281770181
4.779105307029731,-0.5756257909542897
4.781883856626841,-0.6268247744802553
4.784662406223951,-0.33206068197881206
4.7874409558210616,-0.5802552527612548
4.790219505418172,-0.5501138948226623
4.792998055015282,-0.46056175323052534
4.795776604612393,-0.41952351652498077
4.798555154209503,-0.5025429974813118
4.8013337038066135,-0.42813737713481687
4.804112253403724,-0.5114763961710536
4.806890803000834,-0.5655121513007244
4.809669352597944,-0.32263794619977093
4.812447902195054,-0.21315821390110568
4.815226451792165,-0.28899735647534514
4.818005001389275,-0.440865810397507
4.820783550986386,-0.26801641406659776
4.823562100583496,-0.4119655095853543
4.826340650180606,-0.4913039995839117
4.8291191997777165,-0.3928417340411602
4.831897749374827,-0.4446893168836807
4.834676298971937,-0.5291996043086417
4.837454848569047,-0.5162263772284335
4.840233398166157,-0.34156544437860425
4.843011947763268,-0.6016717077672764
4.845790497360378,-0.35172562842825505
4.848569046957489,-0.5700928442224176
4.851347596554599,-0.6141232238796981
4.854126146151709,-0.5806388123563188
4.85690469574882,-0.19470540505183767
4.85968324534593,-0.4055135640576152
4.86246179494304,-0.37162260365259775
4.86524034454015,-0.23263026955210067
4.86801889413726,-0.2752984950400863
4.870797443734371,-0.5019153155473497
4.873575993331482,-0.26980190995928477
4.876354542928592,-0.3321134579670656
4.879133092525702,-0.37842159973413375
4.881911642122812,-0.33544198277855763
4.884690191719923,-0.20340418034560312
4.887468741317033,-0.41339533952938184
4.890247290914143,-0.2780244405175643
4.893025840511253,-0.31229609502538674
4.895804390108363,-0.4841693089024177
4.8985829397054745,-0.3777078496980942
4.901361489302585,-0.27110019594065776
4.904140038899695,-0.15353784670928075
4.906918588496805,-0.17590312286996532
4.909697138093915,-0.2089950131110938
4.912475687691026,-0.342841969542881
4.915254237288136,-0.07371150108856572
4.918032786885246,-0.22474998721297074
4.920811336482356,-0.3392766608031628
4.9235898860794665,-0.24922394889022903
4.926368435676578,-0.13353156677631228
4.929146985273688,-0.21454960460446298
4.931925534870798,-0.1187142085271377
4.934704084467908,-0.08905739282127025
4.937482634065018,-0.15133905039627066
4.940261183662129,-0.26906937915451895
4.943039733259239,-0.1616047828064572
4.945818282856349,-0.1624314136927372
4.948596832453459,0.027239766178491637
4.95137538205057,-0.3130255620494785
4.954153931647681,-0.15552827769881855
4.956932481244791,-0.1920647589463849
4.959711030841901,-0.09171347856687906
4.962489580439011,-0.3605109471705065
4.965268130036121,0.003243058355338127
4.968046679633232,-0.09833644306215658
4.970825229230342,-0.2756129124546211
4.973603778827452,-0.11865783545338582
4.976382328424563,-0.01302885525666718
4.979160878021673,-0.22442591359721786
4.981939427618784,-0.05629504472131393
4.984717977215894,-0.153683515707244
4.987496526813004,-0.0948389287452138
4.990275076410114,-0.027858902263159957
4.9930536260072245,-0.0034707244082265165
4.995832175604335,-0.060166359838432534
4.998610725201445,0.022915158879042805
5.001389274798555,0.08616224079946297
5.004167824395666,-0.014799317490161844
5.006946373992776,0.16497252551131558
5.009724923589887,0.17675415760866792
5.012503473186997,-0.003629781001265285
5.015282022784107,-0.015847904720266884
5.018060572381217,-0.1098000321509873
5.0208391219783275,0.05262419288747629
5.023617671575438,0.037581311410516766
5.026396221172548,0.16045164399269718
5.029174770769659,-0.05982336451501288
5.031953320366769,0.07197215262140125
5.0347318699638794,0.20512383690480668
5.03751041956099,0.04371880169477718
5.0402889691581,0.048987886913720274
5.04306751875521,-0.011038629208685646
5.04584606835232,0.40410341719120757
5.0486246179494305,0.07564605046025812
5.051403167546541,0.028660183984836107
5.054181717143652,0.08656295888346882
5.056960266740762,0.09772074107677534
5.059738816337872,0.15636013900470602
5.0625173659349825,0.2739293420648933
5.065295915532093,0.16959447166790403
5.068074465129203,0.11511834568573315
5.070853014726313,0.0701775046171784
5.073631564323423,0.22534214513391745
5.0764101139205335,0.2351873582075119
5.079188663517644,0.39173334373818913
5.081967213114755,0.25551880752391476
5.084745762711865,0.2439320690410135
5.087524312308975,0.15624901977048666
5.0903028619060855,0.2381210060415976
5.093081411503196,0.2321887788011781
5.095859961100306,0.2462556391672
5.098638510697416,0.19449601199996902
5.101417060294526,0.35131549285263125
5.104195609891637,0.2902083056119165
5.106974159488748,0.2912950233715976
5.109752709085858,0.14670839682307715
5.112531258682968,0.37416310007777337
5.115309808280078,0.38008691500644365
5.1180883578771885,0.2539581339081174
5.120866907474299,0.4432659283624668
5.123645457071409,0.21405576142917865
5.126424006668519,0.3545155533622545
5.129202556265629,0.33564405461791175
5.1319811058627405,0.2369989910094809
5.134759655459851,0.3935260353511969
5.137538205056961,0.5505379368933203
5.140316754654071,0.39265359056995447
5.143095304251181,0.345079626834408
5.1458738538482915,0.4414565676690381
5.148652403445402,0.4125775789361714
5.151430953042512,0.40991069711012534
5.154209502639622,0.36958508119537803
5.156988052236732,0.559216065530055
5.1597666018338435,0.46740695460073567
5.162545151430954,0.37352711419168316
5.165323701028064,0.42008740225597535
5.168102250625174,0.36116339582215506
5.170880800222284,0.37865057647120876
5.173659349819395,0.37950280012456905
5.176437899416505,0.33410470178553014
5.179216449013615,0.5290876466249613
5.181994998610725,0.42594232798554854
5.184773548207836,0.5140070676094393
5.1875520978049465,0.394989785561489
5.190330647402057,0.45923338283924
5.193109196999167,0.3972910251391756
5.195887746596277,0.5433445974351473
5.198666296193387,0.4493748792344393
5.201444845790498,0.40382394951720957
5.204223395387608,0.3152901308962327
5.207001944984718,0.5094301249075911
5.209780494581829,0.4132811190786183
5.212559044178939,0.48465030745343524
5.2153375937760496,0.4390156310730405
5.21811614337316,0.5854192230362931
5.22089469297027,0.5460770214727717
5.22367324256738,0.5378961878631413
5.22645179216449,0.4329249902983781
5.229230341761601,0.5423775059845772
5.232008891358711,0.6682919677728065
5.234787440955821,0.4144990918838903
5.237565990552932,0.5157088037234816
5.240344540150042,0.33415846219151846
5.243123089747153,0.6393895295359344
5.245901639344263,0.4600430238980725
5.248680188941373,0.5782406963066672
5.251458738538483,0.3276561733653129
5.254237288135593,0.6795767442743169
5.257015837732704,0.4638271243985585
5.259794387329814,0.553619239735083
5.262572936926925,0.5135224571888259
5.265351486524035,0.47212877287494803
5.268130036121145,0.6653386155588978
5.270908585718256,0.3308868966363104
5.273687135315366,0.5243439388965365
5.276465684912476,0.5841674908978105
5.279244234509586,0.4885973748820199
5.2820227841066965,0.4780961478179426
5.284801333703807,0.47382537900229527
5.287579883300917,0.3633626712858792
5.290358432898028,0.4878230537712489
5.293136982495138,0.5330185535730936
5.295915532092248,0.48619638353881184
5.298694081689359,0.44955241856302547
5.301472631286469,0.42510578179568903
5.304251180883579,0.44330238336426286
5.307029730480689,0.5940166166766818
5.3098082800777995,0.25644613124094284
5.31258682967491,0.46584245345483066
5.315365379272021,0.4256447369929376
5.318143928869131,0.6004462279785842
5.320922478466241,0.45672122598847437
5.323701028063351,0.5958336262197917
5.326479577660462,0.2309847872965546
5.329258127257572,0.48522987132415984
5.332036676854682,0.4630408779003049
5.334815226451792,0.5697196101076782
5.3375937760489025,0.2620312160120343
5.340372325646014,0.4060324731138794
5.343150875243124,0.4233835818067409
5.345929424840234,0.36231248283721573
5.348707974437344,0.5285387442957695
5.3514865240344545,0.36787768623833506
5.354265073631565,0.5999646473388851
5.357043623228675,0.496527830656156
5.359822172825785,0.48069585416873695
5.362600722422895,0.4359273007334387
5.3653792720200055,0.2678969463966209
5.368157821617117,0.3253119060887325
5.370936371214227,0.419739423724652
5.373714920811337,0.4241522661007503
5.376493470408447,0.480938600771907
5.3792720200055575,0.29719302906233414
5.382050569602668,0.2515338804855646
5.384829119199778,0.4169688493026727
5.387607668796888,0.2435040838152232
5.390386218393998,0.40510734577855334
5.393164767991109,0.43096234907037917
5.39594331758822,0.34972182144026126
5.39872186718533,0.2613737158147301
5.40150041678244,0.29417438330792933
5.40427896637955,0.3422588882669208
5.4070575159766605,0.27669075806946236
5.409836065573771,0.488177730862848
5.412614615170881,0.16187510787105885
5.415393164767991,0.15318991643665392
5.418171714365102,0.14820456244227975
5.4209502639622125,0.17929849144988033
5.423728813559323,0.012653098705169508
5.426507363156433,0.15980070939951802
5.429285912753543,0.149588888950685
5.432064462350653,0.2148548664170976
5.4348430119477635,0.24080653667169116
5.437621561544874,0.06696720007443341
5.440400111141984,0.27289840397361165
5.443178660739094,0.3549656067222582
5.445957210336205,0.1457080199788134
5.4487357599333155,0.31571804374697277
5.451514309530426,0.16987601845351835
5.454292859127536,0.34050070002784666
5.457071408724646,0.24496312880480506
5.459849958321756,-0.03158901434148363
5.462628507918867,0.1181928162566312
5.465407057515977,0.21325575176590386
5.468185607113087,0.10233822520298562
5.470964156710198,0.08702526729342527
5.473742706307308,0.2090925010835869
5.4765212559044185,0.0025079862730218866
5.479299805501529,0.06659994500599557
5.482078355098639,0.08854617490532626
5.484856904695749,0.014122593595409016
5.487635454292859,0.03679239291280199
5.49041400388997,0.10759941625196344
5.49319255348708,0.0646634657481349
5.495971103084191,-0.0682159520155103
5.498749652681301,-0.10648435703536088
5.501528202278411,-0.08371113330347699
5.5043067518755215,-0.013403563303274052
5.507085301472632,-0.0382457580874633
5.509863851069742,-0.1141641171884824
5.512642400666852,-0.09949056316582593
5.515420950263962,-0.20037450421686825
5.518199499861073,-0.015265520824639445
5.520978049458183,-0.06971569121777339
5.523756599055294,-0.2003354523686791
5.526535148652404,-0.08011490459015674
5.529313698249514,0.042690298693116385
5.532092247846625,-0.17413252581233457
5.534870797443735,0.02283830814265375
5.537649347040845,-0.1495246015959345
5.540427896637955,-0.10586371982892426
5.543206446235065,-0.12430084421460862
5.545984995832176,-0.002312107175578171
5.548763545429287,-0.1349661682472934
5.551542095026397,-0.273298835414097
5.554320644623507,-0.29845637812021863
5.557099194220617,-0.32885108639205135
5.559877743817728,-0.35490213074404525
5.562656293414838,-0.1871817522670736
5.565434843011948,-0.29566439484996243
5.568213392609058,-0.2158788937331024
5.5709919422061684,-0.28609108926803595
5.5737704918032795,-0.30062532656321655
5.57654904140039,-0.2794050090080666
5.5793275909975,-0.168664996266044
5.58210614059461,-0.1537392644085574
5.58488469019172,-0.21709157648807167
5.587663239788831,-0.36066866176651874
5.590441789385941,-0.2047210978088791
5.593220338983051,-0.20751036601980333
5.595998888580161,-0.25616687872541055
5.5987774381772715,-0.35113876414485673
5.601555987774383,-0.2269472618299264
5.604334537371493,-0.26251708741754004
5.607113086968603,-0.6233574332518346
5.609891636565713,-0.25400440895180076
5.612670186162823,-0.5165046608316856
5.615448735759934,-0.2653559246289094
5.618227285357044,-0.35359991180259903
5.621005834954154,-0.22520901953930195
5.623784384551264,-0.3606588066382367
5.626562934148375,-0.44566967995047513
5.629341483745486,-0.377800380218499
5.632120033342596,-0.26303048949723584
5.634898582939706,-0.37222009560201014
5.637677132536816,-0.3919976669697476
5.6404556821339265,-0.31181220507185314
5.643234231731037,-0.370617329845457
5.646012781328147,-0.397612349294018
5.648791330925257,-0.26565894084081476
5.651569880522368,-0.25187628154482633
5.654348430119478,-0.35105363598399175
5.657126979716589,-0.44585506096780375
5.659905529313699,-0.27231376185232803
5.662684078910809,-0.30831000264476444
5.665462628507919,-0.35921931359285847
5.6682411781050295,-0.5570723670170931
5.67101972770214,-0.42562047691825156
5.67379827729925,-0.5181438354664671
5.67657682689636,-0.4636315401136972
5.679355376493471,-0.4275418602012901
5.682133926090581,-0.4452112282914557
5.684912475687692,-0.5062855519802502
5.687691025284802,-0.33487371594594195
5.690469574881912,-0.6350424075371124
5.693248124479022,-0.395529264695048
5.6960266740761325,-0.6572714784559814
5.698805223673243,-0.43609516076710153
5.701583773270353,-0.5657326567849866
5.704362322867464,-0.3917537056574956
5.707140872464574,-0.47333451915646824
5.7099194220616845,-0.4594579265333577
5.712697971658795,-0.5881577070710873
5.715476521255905,-0.5537397750553863
5.718255070853015,-0.46936519093322276
5.721033620450125,-0.4333847381068385
5.7238121700472355,-0.2003370346011767
5.726590719644346,-0.47231542323293507
5.729369269241456,-0.39820135570541715
5.732147818838567,-0.6525512432165681
5.734926368435677,-0.6307483459931365
5.7377049180327875,-0.5340582406851087
5.740483467629898,-0.6188492011597488
5.743262017227008,-0.3509120574712207
5.746040566824118,-0.5408671503735496
5.748819116421228,-0.36176804819840086
5.7515976660183386,-0.35129656027548173
5.754376215615449,-0.49553302452957715
5.75715476521256,-0.44931487808481785
5.75993331480967,-0.5046364222148365
5.76271186440678,-0.44456230347992115
5.7654904140038905,-0.4492994432980415
5.768268963601001,-0.5090745477557977
5.771047513198111,-0.44513715706955725
5.773826062795221,-0.3220380388255569
5.776604612392331,-0.4217288695328398
5.779383161989442,-0.4589230919203855
5.782161711586553,-0.47734886216087385
5.784940261183663,-0.589266599010233
5.787718810780773,-0.5887537147837605
5.790497360377883,-0.45156498446328686
5.7932759099749935,-0.618568877807862
5.796054459572104,-0.5558448624621908
5.798833009169214,-0.3484972519157741
5.801611558766324,-0.28251642722286696
5.804390108363434,-0.6376815688194014
5.807168657960545,-0.3054239920207251
5.809947207557656,-0.4860931007739984
5.812725757154766,-0.4631683970658704
5.815504306751876,-0.4695869614316955
5.818282856348986,-0.3466296319820604
5.821061405946097,-0.6117513707662712
5.823839955543207,-0.4015295695473041
5.826618505140317,-0.5376588875613444
5.829397054737427,-0.38198388255380267
5.832175604334537,-0.2805401522389273
5.8349541539316485,-0.43048604535442303
5.837732703528759,-0.3885221403819796
5.840511253125869,-0.38034599057853896
5.843289802722979,-0.49649563405178065
5.846068352320089,-0.2604805132744859
5.8488469019172,-0.2359803271395047
5.85162545151431,-0.3313075868475679
5.85440400111142,-0.38889378858133117
5.85718255070853,-0.43702736080179566
5.859961100305641,-0.44798352986446743
5.8627396499027515,-0.20862993571950436
5.865518199499862,-0.23253544740361537
5.868296749096972,-0.37449247794354895
5.871075298694082,-0.5201565622523093
5.873853848291192,-0.6392914966713619
5.876632397888303,-0.4582512472604078
5.879410947485413,-0.35668224760615613
5.882189497082523,-0.19715820311814083
5.884968046679633,-0.3958968462900923
5.887746596276744,-0.2736529986462575
5.890525145873855,-0.18712097761532864
5.893303695470965,-0.2977932228369763
5.896082245068075,-0.31800474351208385
5.898860794665185,-0.42765683051760994
5.901639344262295,-0.40995807992272537
5.904417893859406,-0.2409423579832752
5.907196443456516,-0.29539873105890596
5.909974993053626,-0.25572659420250615
5.912753542650737,-0.26529757117865604
5.915532092247847,-0.18666605211634474
5.918310641844958,-0.3239827220345064
5.921089191442068,-0.2714307415882987
5.923867741039178,-0.04054065211289981
5.926646290636288,-0.3023535389736234
5.929424840233398,-0.24268074317079602
5.932203389830509,-0.265544763082045
5.934981939427619,-0.15414788024239542
5.93776048902473,-0.08834617080292709
5.94053903862184,-0.23230786504481638
5.94331758821895,-0.2174738193242914
5.946096137816061,-0.1940230949250123
5.948874687413171,-0.10488347383986651
5.951653237010281,-0.2235001857326822
5.954431786607391,-0.17880487242890475
5.9572103362045015,-0.370033445835904
5.959988885801612,-0.2625532635534484
5.962767435398722,-0.12714993409269426
5.965545984995833,-0.017610611479249513
5.968324534592943,-0.06934818842116877
5.971103084190053,-0.200161221210016
5.973881633787164,-0.22171108836802772
5.976660183384274,-0.05559365426379523
5.979438732981384,-0.22969595611790272
5.982217282578494,0.05084279415852566
5.9849958321756045,-0.040677572974718926
5.987774381772715,-0.19910216739885442
5.990552931369826,-0.12625680227967412
5.993331480966936,-0.09337477306237571
5.996110030564046,-0.08953873372377752
5.9988885801611564,-0.15248490084426625
6.001667129758267,-0.08222890537538438
6.004445679355377,-0.05447545817815719
6.007224228952487,-0.0484407836590284
6.010002778549597,0.1441996340993851
6.0127813281467075,0.05059336032233282
6.015559877743819,-0.0505207581322902
6.018338427340929,0.024022311860822855
6.021116976938039,-0.021809248489075284
6.023895526535149,0.044787624075657506
6.0266740761322595,0.1709582401269273
6.02945262572937,0.11722801691048797
6.03223117532648,0.3291266310861696
6.03500972492359,0.14669417903485796
6.0377882745207,0.026243657160510442
6.0405668241178105,0.20704300998430328
6.043345373714922,0.24248946419962042
6.046123923312032,0.25229945555404726
6.048902472909142,0.041801527369520294
6.051681022506252,0.14475865709373392
6.0544595721033625,0.2809517510261665
6.057238121700473,0.007494683315121375
6.060016671297583,0.13416929574001712
6.062795220894693,0.049504482784827414
6.065573770491803,0.10696992983592991
6.0683523200889145,0.10694891408269576
6.071130869686025,0.3411558357958643
6.073909419283135,0.20048340984700458
6.076687968880245,0.14537176464436097
6.079466518477355,0.1358462395590058
6.0822450680744655,0.2612000529390918
6.085023617671576,0.2534710069037841
6.087802167268686,0.396465648265378
6.090580716865796,0.3194536517094848
6.093359266462907,0.133583852342417
6.0961378160600175,0.22109285567776604
6.098916365657128,0.3981389194667733
6.101694915254238,0.23607540949911437
6.104473464851348,0.4786020276532634
6.107252014448458,0.20218399619574184
6.1100305640455685,0.3760473088138938
6.112809113642679,0.23934029308736676
6.115587663239789,0.28107901611947395
6.118366212836899,0.448372176859436
6.12114476243401,0.33217960641902117
6.1239233120311205,0.4324987437788178
6.126701861628231,0.40464275111162373
6.129480411225341,0.43875153062626004
6.132258960822451,0.2804866658084116
6.135037510419561,0.3529760151934937
6.137816060016672,0.4232723521287313
6.140594609613782,0.30153736416590216
6.143373159210892,0.5548744366680269
6.146151708808003,0.3195619587096621
6.148930258405113,0.3725236517665428
6.1517088080022235,0.30698466865859014
6.154487357599334,0.1983020940127098
6.157265907196444,0.5971913163576571
6.160044456793554,0.401804888912184
6.162823006390664,0.382057927757334
6.165601555987775,0.41145843969947454
6.168380105584885,0.5776654170524629
6.171158655181995,0.3433846471849092
6.173937204779106,0.5119343118826499
6.176715754376216,0.4055456027482073
6.1794943039733266,0.39206772639570076
6.182272853570437,0.5121133382722319
6.185051403167547,0.5577654808261612
6.187829952764657,0.41094515915617236
6.190608502361767,0.38870365882032154
6.193387051958878,0.3517902190478218
6.196165601555988,0.5820185395995132
6.198944151153099,0.4169671780506213
6.201722700750209,0.2922597039829884
6.204501250347319,0.6207025574967735
6.20727979994443,0.34510975569308366
6.21005834954154,0.5622831886074894
6.21283689913865,0.5047738139628998
6.21561544873576,0.5171680524031572
6.21839399833287,0.43173569464113837
6.221172547929981,0.5283796866901784
6.223951097527092,0.3265399733114867
6.226729647124202,0.553468806460108
6.229508196721312,0.6515623412212671
6.232286746318422,0.5853092341795493
6.235065295915533,0.29584623660595843
6.237843845512643,0.4001213565735735
6.240622395109753,0.4803528310585628
6.243400944706863,0.5482639951643262
6.2461794943039735,0.4891906802023663
6.248958043901084,0.45066784616901845
6.251736593498195,0.5595002667361908
6.254515143095305,0.6162139832572736
6.257293692692415,0.47624564841291184
6.260072242289525,0.5718920488703513
6.262850791886636,0.2404659161874298
6.265629341483746,0.40384008766731727
6.268407891080856,0.464533512858229
6.271186440677966,0.4467197934265411
6.2739649902750765,0.5276222049054693
6.276743539872188,0.594332740410034
6.279522089469298,0.5420896476170908
6.282300639066408,0.42751548186929555
6.285079188663518,0.3356272421674535
6.287857738260628,0.5416177825492471
6.290636287857739,0.29997291717767016
6.293414837454849,0.5468160909352112
6.296193387051959,0.4602424709842205
6.298971936649069,0.3589328812427933
6.30175048624618,0.5025258799459189
6.304529035843291,0.4706519027694155
6.307307585440401,0.46427561561484465
6.310086135037511,0.4563662302672615
6.312864684634621,0.5034525279924463
6.3156432342317315,0.5505144210400508
6.318421783828842,0.5041638299685766
6.321200333425952,0.5520083976274466
6.323978883023062,0.4425364824207233
6.326757432620172,0.6048155412849424
6.329535982217283,0.4959647378049376
6.332314531814394,0.3802347459534263
6.335093081411504,0.32083257836833984
6.337871631008614,0.4462885768868613
6.340650180605724,0.29041380956915896
6.3434287302028345,0.3189570983988952
6.346207279799945,0.43530525861207137
6.348985829397055,0.3455842763451621
6.351764378994165,0.3078940133940491
6.354542928591276,0.3925084641103365
6.357321478188386,0.39783341087530194
6.360100027785497,0.36447283449680146
6.362878577382607,0.3416748041189296
6.365657126979717,0.45915138576710424
6.368435676576827,0.40207357291803736
6.3712142261739375,0.339519844355439
6.373992775771048,0.6022159786415056
6.376771325368158,0.3689798532783127
6.379549874965269,0.45650353752891837
6.382328424562379,0.28080663687782803
6.3851069741594895,0.19410967401750587
6.3878855237566,0.2446264485972894
6.39066407335371,0.2903007651710016
6.39344262295082,0.26064391994075875
6.39622117254793,0.43705178218613405
6.3989997221450405,0.2844250008294382
6.401778271742151,0.33550160450532907
6.404556821339261,0.27754401564435305
6.407335370936372,0.23158810623052478
6.410113920533482,0.2714107520935766
6.4128924701305925,0.43160234671583686
6.415671019727703,0.17590908691820983
6.418449569324813,0.32183271864977464
6.421228118921923,0.13488796434190836
6.424006668519033,0.18380867962740938
6.426785218116144,0.22234224932971747
6.429563767713254,0.24676638655125285
6.432342317310365,0.35452142723910296
6.435120866907475,0.19321713912228272
6.437899416504585,0.10582026650573004
6.4406779661016955,0.24708448493148855
6.443456515698806,0.13750627295738777
6.446235065295916,0.18958136901261147
6.449013614893026,0.14583042013224046
6.451792164490136,-0.045201557138604104
6.454570714087247,0.19162005445817823
6.457349263684358,0.1907300346154477
6.460127813281468,0.2166164581237814
6.462906362878578,0.295527225720872
6.465684912475688,-0.012539655855682633
6.4684634620727985,0.1500786355071575
6.471242011669909,0.13078456157904284
6.474020561267019,0.039346647535917434
6.476799110864129,0.11234049059401094
6.479577660461239,0.11394744653571989
6.48235621005835,-0.06655224849536878
6.485134759655461,0.07125493491270846
6.487913309252571,-0.05386346018690705
6.490691858849681,-0.03595992973264443
6.493470408446791,-0.15696691879683197
6.496248958043902,-0.035552937640666825
6.499027507641012,-0.017301911308165645
6.501806057238122,0.04931191235113849
6.504584606835232,-0.014310982681898681
6.507363156432342,-0.17735260228489297
6.5101417060294535,0.054375254271884985
6.512920255626564,-0.052404273957126
6.515698805223674,-0.00040225529453553205
6.518477354820784,0.03867560188113265
6.521255904417894,0.0756814214967954
6.524034454015005,0.12090289399717802
6.526813003612115,-0.09106150693020092
6.529591553209225,-0.061317460629609535
6.532370102806335,-0.20883011780425553
6.535148652403446,-0.003367314351585979
6.5379272020005565,-0.23651601681637163
6.540705751597667,-0.3070164099945125
6.543484301194777,-0.05187805749812198
6.546262850791887,-0.19547060766607052
6.549041400388997,-0.07388084905709089
6.551819949986108,-0.11912851711134143
6.554598499583218,-0.33118190687732985
6.557377049180328,-0.44834397970680817
6.560155598777438,-0.29417686377265384
6.562934148374549,-0.19095194934565285
6.56571269797166,-0.3228044397271579
6.56849124756877,-0.2738675125729091
6.57126979716588,-0.36238642781364094
6.57404834676299,-0.20733956357079764
6.5768268963601,-0.22301140137937173
6.579605445957211,-0.2879291536492552
6.582383995554321,-0.10770617535588342
6.585162545151431,-0.1051886108057907
6.587941094748542,-0.20590309485097355
6.590719644345652,-0.4497966517265175
6.593498193942763,-0.38759603145311416
6.596276743539873,-0.2436370042871578
6.599055293136983,-0.35434215216820647
6.601833842734093,-0.347243055136995
6.6046123923312035,-0.21559370346757128
6.607390941928314,-0.26126638463178176
6.610169491525424,-0.18770664844101526
6.612948041122535,-0.36871398478246814
6.615726590719645,-0.1948421814931633
6.618505140316755,-0.39424821888455425
6.621283689913866,-0.19525304598573204
6.624062239510976,-0.34088062108818185
6.626840789108086,-0.4436698317452295
6.629619338705196,-0.5267865846731766
6.6323978883023065,-0.3997468049309776
6.635176437899417,-0.4010451365999427
6.637954987496527,-0.29536354844971335
6.640733537093638,-0.3977805020706968
6.643512086690748,-0.43543849740560553
6.646290636287858,-0.28984586712712
6.649069185884969,-0.42526542065659756
6.651847735482079,-0.46551733653941996
6.654626285079189,-0.355418336314483
6.657404834676299,-0.466722286145054
6.6601833842734095,-0.3565921680994995
6.66296193387052,-0.4867682507530984
6.665740483467631,-0.4538464512253791
6.668519033064741,-0.42067530119137536
6.671297582661851,-0.47751524557448516
6.6740761322589615,-0.4455232412555258
6.676854681856072,-0.3665710020205175
6.679633231453182,-0.41086154742918707
6.682411781050292,-0.4074905329310581
6.685190330647402,-0.5226574996702763
6.6879688802445125,-0.37721848841871125
6.690747429841623,-0.3987912799077221
6.693525979438734,-0.36840969339221646
6.696304529035844,-0.5444493983799745
6.699083078632954,-0.49187607874343997
6.7018616282300645,-0.41394957542863453
6.704640177827175,-0.5407117521042333
6.707418727424285,-0.5048235198550222
6.710197277021395,-0.29186476378837706
6.712975826618505,-0.2913556522068991
6.7157543762156156,-0.36447582969823067
6.718532925812727,-0.3964006269495457
6.721311475409837,-0.5938240907372713
6.724090025006947,-0.44213266738775764
6.726868574604057,-0.5306400902172482
6.7296471242011675,-0.6017743778244733
6.732425673798278,-0.5478553841410776
6.735204223395388,-0.4862744437176579
6.737982772992498,-0.5533109279346933
6.740761322589608,-0.5542377771646412
6.7435398721867195,-0.42038401602457487
6.74631842178383,-0.48545558465532235
6.74909697138094,-0.476646143780976
6.75187552097805,-0.4887780435995491
6.75465407057516,-0.5673565502587092
6.7574326201722705,-0.6365120560102467
6.760211169769381,-0.46791479812016357
6.762989719366491,-0.5490392613677961
6.765768268963601,-0.6986262717910487
6.768546818560711,-0.535865575320023
6.7713253681578225,-0.6047400923094737
6.774103917754933,-0.4244116998345258
6.776882467352043,-0.44072198047507927
6.779661016949153,-0.4416527478124134
6.782439566546263,-0.5561540324761785
6.785218116143374,-0.41465328584948724
6.787996665740484,-0.4538533653371635
6.790775215337594,-0.5246656298896631
6.793553764934704,-0.5267283361034296
6.796332314531815,-0.3896914754925954
6.7991108641289255,-0.5237444167277701
6.801889413726036,-0.4432948920967402
6.804667963323146,-0.3673970074094721
6.807446512920256,-0.2768471224551697
6.810225062517366,-0.2982401815533543
6.813003612114477,-0.3712497178682798
6.815782161711587,-0.6084870254432275
6.818560711308697,-0.5232250721819195
6.821339260905808,-0.5054148196848656
6.824117810502918,-0.2814396541102683
6.8268963601000285,-0.5126988064700377
6.829674909697139,-0.4000278035901424
6.832453459294249,-0.42430147429553217
6.835232008891359,-0.5235122484992278
6.838010558488469,-0.38729741870988105
6.84078910808558,-0.38100082586251527
6.84356765768269,-0.5416302771958397
6.8463462072798,-0.28886059471066855
6.849124756876911,-0.614769583323895
6.851903306474021,-0.46004076034460595
6.854681856071132,-0.29849227456441396
6.857460405668242,-0.509618748412863
6.860238955265352,-0.34975108113153647
6.863017504862462,-0.5087811477904249
6.865796054459572,-0.3826994038224633
6.868574604056683,-0.5989123775564671
6.871353153653793,-0.44581829630876185
6.874131703250904,-0.5097691345194869
6.876910252848014,-0.3894608857685648
6.879688802445124,-0.38450871831240546
6.882467352042235,-0.40394852824027544
6.885245901639345,-0.2502847406789393
6.888024451236455,-0.4121573697036716
6.890803000833565,-0.25332550430156137
6.893581550430675,-0.14703481386705647
6.896360100027786,-0.2891597250532967
6.899138649624897,-0.38184454157275605
6.901917199222007,-0.4139325154276243
6.904695748819117,-0.3528102360613505
6.907474298416227,-0.20411461969604644
6.910252848013338,-0.2516832981209265
6.913031397610448,-0.16614487998148053
6.915809947207558,-0.17529415464684536
6.918588496804668,-0.2306721143245433
6.9213670464017785,-0.18975569465385822
6.924145595998889,-0.04385897671233388
6.926924145596,-0.08002714057162316
6.92970269519311,-0.2440089935976542
6.93248124479022,-0.10684293468159478
6.93525979438733,-0.13923955843139071
6.938038343984441,-0.076139298605304
6.940816893581551,-0.11451207612389709
6.943595443178661,-0.27093073346466845
6.946373992775771,-0.32726981971346125
6.9491525423728815,-0.09977565429046786
6.951931091969993,0.04153433298135706
6.954709641567103,-0.21793769948237676
6.957488191164213,-0.15078128210776195
6.960266740761323,-0.2271078781510795
6.9630452903584334,0.0027266980042740807
6.965823839955544,-0.33706101817798656
6.968602389552654,-0.324365970511408
6.971380939149764,-0.051923687838023105
6.974159488746874,-0.08905852884380888
6.976938038343985,-0.12016031651028697
6.979716587941096,-0.09365934005603678
6.982495137538206,-0.0011835476968432707
6.985273687135316,-0.08757848880282798
6.988052236732426,-0.14719225761978894
6.9908307863295365,-0.12152629466361144
6.993609335926647,0.06876241752096267
6.996387885523757,-0.06382101363557817
6.999166435120867,-0.14114646770503972
7.001944984717977,0.016328030304674206
7.004723534315088,0.06533671446707709
7.007502083912199,0.15645583964360704
7.010280633509309,0.054065445678523616
7.013059183106419,-0.024990512450753025
7.015837732703529,0.09707441427252333
7.0186162823006395,0.13106899034388178
7.02139483189775,0.06312106416074341
7.02417338149486,0.07119132331426216
7.02695193109197,0.11028116392566813
7.029730480689081,0.08587315137454074
7.0325090302861915,0.12643281824602737
7.035287579883302,0.007761810353228996
7.038066129480412,0.0034075696454557713
7.040844679077522,0.043302311027881096
7.043623228674632,0.19955796510988966
7.0464017782717425,0.16959880147642192
7.049180327868853,0.2560813125887155
7.051958877465963,0.14168035146933639
7.054737427063074,0.05422846047359502
7.057515976660184,0.29123972648235535
7.0602945262572945,0.18304556013497372
7.063073075854405,0.3213493016309672
7.065851625451515,0.2608211559579881
7.068630175048625,0.427849814861595
7.071408724645735,0.19490839343498234
7.0741872742428455,0.3147897253420279
7.076965823839956,0.3216168991748588
7.079744373437066,0.18466015253016074
7.082522923034177,0.2305436542916298
7.085301472631287,0.1091616289448401
7.0880800222283975,0.10792160574814019
7.090858571825508,0.28284375959549407
7.093637121422618,0.35679089922435714
7.096415671019728,0.348511335038339
7.099194220616838,0.3258433577508392
7.101972770213949,0.3851856325045655
7.104751319811059,0.24686606334836741
7.10752986940817,0.2854412814617916
7.11030841900528,0.3932101183159682
7.11308696860239,0.36943588650982284
7.1158655181995005,0.3116717830310468
7.118644067796611,0.4712353567476011
7.121422617393721,0.21631767915903408
7.124201166990831,0.29990651509950356
7.126979716587941,0.32958397250908766
7.129758266185052,0.4456175164226319
7.132536815782162,0.37013189814158864
7.135315365379273,0.24956081784886225
7.138093914976383,0.4328125161786899
7.140872464573493,0.49575258902228064
7.1436510141706036,0.4663963212242501
7.146429563767714,0.45972965515953035
7.149208113364824,0.2156098630176588
7.151986662961934,0.3181567762200723
7.154765212559044,0.4613333018178776
7.157543762156155,0.41249032764146853
7.160322311753266,0.47496142022478294
7.163100861350376,0.30066907443624846
7.165879410947486,0.42562131473447906
7.168657960544596,0.29712854364198904
7.171436510141707,0.24494172749925291
7.174215059738817,0.4739562337351768
7.176993609335927,0.5325705084804192
7.179772158933037,0.476669939613697
7.182550708530147,0.45246752367981685
7.1853292581272585,0.3030857041519279
7.188107807724369,0.5632778306071466
7.190886357321479,0.46150160850774263
7.193664906918589,0.664959274727966
7.196443456515699,0.5661885387180677
7.19922200611281,0.2742547563016917
7.20200055570992,0.5529377589754115
7.20477910530703,0.34029924769587316
7.20755765490414,0.4063769233970088
7.2103362045012505,0.4594775027798184
7.213114754098362,0.4772259418139315
7.215893303695472,0.5283194095442373
7.218671853292582,0.3880591813351855
7.221450402889692,0.37690783566946967
7.224228952486802,0.553519962688204
7.227007502083913,0.4934664260751719
7.229786051681023,0.5134099660575634
7.232564601278133,0.27763437229447113
7.235343150875243,0.48016753943016666
7.238121700472354,0.409535186004787
7.240900250069465,0.4071203282885072
7.243678799666575,0.5917991668162947
7.246457349263685,0.39030901498819814
7.249235898860795,0.3907045770044982
7.252014448457905,0.4668588893142961
7.254792998055016,0.5448021674525484
7.257571547652126,0.4110328257539724
7.260350097249236,0.6223574995710817
7.263128646846347,0.6432845784250882
7.265907196443457,0.40935997782481476
7.268685746040568,0.47204973852586496
7.271464295637678,0.4175922560145875
7.274242845234788,0.3256724762560247
7.277021394831898,0.5231120502220278
7.2797999444290085,0.5646204920148878
7.282578494026119,0.6907477654915495
7.285357043623229,0.3979715147965812
7.288135593220339,0.6193384557136173
7.29091414281745,0.6178047615242702
7.29369269241456,0.5010617873346241
7.296471242011671,0.5390531863669665
7.299249791608781,0.5635785838674825
7.302028341205891,0.6709305641101011
7.304806890803001,0.5184263966794396
7.3075854404001115,0.46161328013105696
7.310363989997222,0.3778491941428028
7.313142539594332,0.4916955954101409
7.315921089191443,0.5601369061038382
7.318699638788553,0.4785988383160887
7.321478188385663,0.37242445499064164
7.324256737982774,0.45546610026557405
7.327035287579884,0.4296487302641579
7.329813837176994,0.4649086685510915
7.332592386774104,0.2679870446096443
7.3353709363712145,0.4848555048340941
7.338149485968325,0.48479273430507935
7.340928035565436,0.46507993026295746
7.343706585162546,0.4154342841559101
7.346485134759656,0.23030618871559663
7.3492636843567665,0.403931551257413
7.352042233953877,0.5067756471026622
7.354820783550987,0.3094094500514248
7.357599333148097,0.19109306515960187
7.360377882745207,0.2304430187819386
7.3631564323423175,0.4102630021869965
7.365934981939428,0.4103941822293733
7.368713531536539,0.4558683341017788
7.371492081133649,0.3557336216294846
7.374270630730759,0.2051370858586405
7.3770491803278695,0.2671216633238038
7.37982772992498,0.4245518092156172
7.38260627952209,0.3503088193072846
7.3853848291192,0.39473106389393625
7.38816337871631,0.3666153525445897
7.390941928313421,0.29593030319332475
7.393720477910532,0.29221912088033364
7.396499027507642,0.4884291122629372
7.399277577104752,0.33719313025108233
7.402056126701862,0.2757836358827171
7.4048346762989725,0.32701310519843657
7.407613225896083,0.2965046167806692
7.410391775493193,0.05113775150815797
7.413170325090303,0.32445985693466994
7.415948874687413,0.43404427421123865
7.4187274242845245,0.16634451209811824
7.421505973881635,0.38212374635467306
7.424284523478745,0.20330872693853938
7.427063073075855,0.2505485685625895
7.429841622672965,0.3203757450747231
7.4326201722700755,0.13341289335851725
7.435398721867186,0.3216731153036808
7.438177271464296,0.06795251281869097
7.440955821061406,0.09375156570782749
7.443734370658516,0.11375256212512735
7.4465129202556275,0.23108992512399434
7.449291469852738,0.12253648722097654
7.452070019449848,-0.0036867135628137204
7.454848569046958,0.11829904733473999
7.457627118644068,0.05312914386032243
7.460405668241179,0.196239497726116
7.463184217838289,0.08030796234318813
7.465962767435399,0.11319527026343293
7.468741317032509,0.057024669349908755
7.47151986662962,0.13239012640876316
7.4742984162267305,0.06203434358026599
7.477076965823841,0.10428597951300578
7.479855515420951,-0.1962219331141818
7.482634065018061,0.06417358966187212
7.485412614615171,0.08715485282027226
7.488191164212282,0.017136516414370535
7.490969713809392,0.09529350865444478
7.493748263406502,0.09349606224090032
7.496526813003613,0.14133186190817973
7.499305362600723,0.01266342162931288
7.5020839121978335,-0.1979266866532879
7.504862461794944,-0.2438234428026181
7.507641011392054,-0.18417981982733483
7.510419560989164,-0.036501344042026714
7.513198110586274,-0.057146110540503545
7.515976660183385,-0.02248391770048919
7.518755209780495,-0.12130954451265391
7.521533759377605,-0.14109320234411085
7.524312308974716,-0.020577868349531854
7.527090858571826,-0.019105610453980182
7.529869408168937,-0.1189526399540719
7.532647957766047,-0.10569643493699113
7.535426507363157,-0.06994743612319627
7.538205056960267,-0.06844097312312743
7.540983606557377,-0.2417336300804871
7.543762156154488,-0.20771436599133158
7.546540705751598,-0.26719162936883734
7.549319255348709,-0.20316380075719112
7.552097804945819,-0.0795294242005077
7.554876354542929,-0.11437624318426431
7.55765490414004,-0.28700236396568957
7.56043345373715,-0.1341010287273235
7.56321200333426,-0.18482204036816677
7.56599055293137,-0.2508187249129359
7.5687691025284805,-0.3500303325890797
7.571547652125591,-0.23476120116081797
7.574326201722702,-0.15711273827699834
7.577104751319812,-0.44917657069333633
7.579883300916922,-0.28016781968618787
7.582661850514032,-0.022742507827714864
7.585440400111143,-0.18844694638133347
7.588218949708253,-0.23718917404605436
7.590997499305363,-0.3442725363886611
7.593776048902473,-0.3456861399257707
7.5965545984995835,-0.2933964486133621
7.599333148096694,-0.13190881639522706
7.602111697693805,-0.2526747755839978
7.604890247290915,-0.3933968496505593
7.607668796888025,-0.19535631129886805
7.610447346485135,-0.34905301942620776
7.613225896082246,-0.1567200754149839
7.616004445679356,-0.3896766542481341
7.618782995276466,-0.43980305935836717
7.621561544873576,-0.3283701924734474
7.6243400944706865,-0.2538517157864496
7.627118644067798,-0.25448389047606684
7.629897193664908,-0.3483439689873172
7.632675743262018,-0.4689965702057275
7.635454292859128,-0.42653190416671016
7.6382328424562385,-0.5835223531442882
7.641011392053349,-0.47858632203860957
7.643789941650459,-0.41058181871791555
7.646568491247569,-0.3591781943895734
7.649347040844679,-0.4372447858964209
7.6521255904417895,-0.4140952873766408
7.654904140038901,-0.4529894835448582
7.657682689636011,-0.3431159790682979
7.660461239233121,-0.5128499095361456
7.663239788830231,-0.3437750276847343
7.6660183384273415,-0.2359026391512136
7.668796888024452,-0.38904099441205797
7.671575437621562,-0.4932253794954728
7.674353987218672,-0.4982052312563584
7.677132536815782,-0.32752099490794956
7.679911086412893,-0.564953465181554
7.682689636010004,-0.551326920225869
7.685468185607114,-0.5759043162868747
7.688246735204224,-0.5906838140637336
7.691025284801334,-0.5705459594650674
7.6938038343984445,-0.39016368425309855
7.696582383995555,-0.3618727845449483
7.699360933592665,-0.544611324337638
7.702139483189775,-0.45682884783248634
7.704918032786886,-0.40415926932497864
7.7076965823839965,-0.4723848841747505
7.710475131981107,-0.5801549099256539
7.713253681578217,-0.6337724229829613
7.716032231175327,-0.38761276370278364
7.718810780772437,-0.44081191540150344
7.7215893303695475,-0.43435913219349825
7.724367879966658,-0.6042943085898346
7.727146429563768,-0.4713563787229455
7.729924979160878,-0.4331277976505226
7.732703528757989,-0.46564685158167324
7.7354820783550995,-0.5724235467128924
7.73826062795221,-0.3974144071877126
7.74103917754932,-0.651970911043483
7.74381772714643,-0.4067486337571828
7.74659627674354,-0.39178006730554626
7.749374826340651,-0.3427631107944843
7.752153375937761,-0.5342034540919451
7.754931925534871,-0.5997029536996072
7.757710475131982,-0.42002531646021307
7.760489024729092,-0.5688360705545841
7.7632675743262025,-0.49386412279038017
7.766046123923313,-0.529207166644838
7.768824673520423,-0.5867137974242786
7.771603223117533,-0.46330098424289734
7.774381772714643,-0.6333458653046827
7.777160322311754,-0.43351644348374896
7.779938871908864,-0.5878726826087599
7.782717421505975,-0.6626455693148032
7.785495971103085,-0.49262686054207017
7.788274520700195,-0.44244779423437375
7.7910530702973055,-0.4257647805821453
7.793831619894416,-0.39932258006686366
7.796610169491526,-0.7140750591500439
7.799388719088636,-0.5766326272514446
7.802167268685746,-0.46271500886521844
7.804945818282857,-0.31859768813496403
7.807724367879967,-0.3890979466682166
7.810502917477078,-0.2741702949974507
7.813281467074188,-0.5134886364287248
7.816060016671298,-0.4301028870710341
7.818838566268409,-0.563952109845183
7.821617115865519,-0.49066233758845723
7.824395665462629,-0.5198915542306141
7.827174215059739,-0.505759673360068
7.829952764656849,-0.477569722296893
7.83273131425396,-0.4336834972280684
7.835509863851071,-0.4273321653650049
7.838288413448181,-0.3706753496006397
7.841066963045291,-0.4063595711885734
7.843845512642401,-0.4499725887702715
7.846624062239512,-0.46290883159706514
7.849402611836622,-0.4363219432318241
7.852181161433732,-0.4453466581047376
7.854959711030842,-0.34605796459349597
7.857738260627952,-0.3031942422365916
7.8605168102250635,-0.2568152120802498
7.863295359822174,-0.45834574436197434
7.866073909419284,-0.32587866648152886
7.868852459016394,-0.5064106473753659
7.871631008613504,-0.3236401691744373
7.874409558210615,-0.24659535827215595
7.877188107807725,-0.36361832747200556
7.879966657404835,-0.2350862993537105
7.882745207001945,-0.4497928768305062
7.8855237565990555,-0.41828441756833307
7.888302306196167,-0.3363842727255571
7.891080855793277,-0.21386726854728802
7.893859405390387,-0.3510199281135317
7.896637954987497,-0.34772670992008764
7.899416504584607,-0.3945364965697482
7.902195054181718,-0.2679977935070704
7.904973603778828,-0.15644075759904408
7.907752153375938,-0.20378095801410295
7.910530702973048,-0.19683913731511476
7.913309252570159,-0.2797756591870179
7.91608780216727,-0.30790419497357824
7.91886635176438,-0.17626704051652792
7.92164490136149,-0.2395267493115241
7.9244234509586,-0.24596844477391328
7.9272020005557104,-0.13098586361762643
7.929980550152821,-0.23272367745706307
7.932759099749931,-0.28879266352062777
7.935537649347041,-0.10610380906707162
7.938316198944152,-0.18089824220970563
7.941094748541262,-0.28456314413635697
7.943873298138373,-0.2839856553466027
7.946651847735483,-0.1549361005585011
7.949430397332593,0.07753158494518012
7.952208946929703,-0.18717592528269314
7.9549874965268135,-0.17316065962059735
7.957766046123924,0.02124696407468446
7.960544595721034,-0.1284151919258174
7.963323145318144,-0.2590532820905326
7.966101694915255,-0.2629709570696278
7.968880244512365,0.02552258200517908
7.971658794109476,-0.02193125731424278
7.974437343706586,0.0026499564102636097
7.977215893303696,-0.07710980224017132
7.979994442900806,-0.13535513982156894
7.9827729924979165,-0.07573093487017932
7.985551542095027,-0.03172572511294387
7.988330091692137,-0.12046037069311846
7.991108641289248,0.028226491386050913
7.993887190886358,-0.14515885192299596
7.9966657404834685,-0.043749995451211145
7.999444290080579,-0.022146597900693187
8.002222839677689,-0.06211895154354191
8.005001389274799,-0.20484079358164867
8.00777993887191,0.06921863247866224
8.01055848846902,-0.042428932087575956
8.01333703806613,0.1744213155298206
8.01611558766324,0.016343912311191255
8.01889413726035,0.005082397536733438
8.02167268685746,0.07702871884768475
8.02445123645457,0.18185797948490912
8.02722978605168,0.028787398901749195
8.030008335648793,0.19519015001279946
8.032786885245903,0.24630639716486621
8.035565434843013,0.20983679507683695
8.038343984440123,0.2819423731717295
8.041122534037234,0.257022176339058
8.043901083634344,0.2876652159691203
8.046679633231454,0.30498752698017895
8.049458182828564,0.17369569916678934
8.052236732425675,0.11825361013546787
8.055015282022785,-0.05681023259987761
8.057793831619895,0.045327315937938484
8.060572381217005,0.14090471600145313
8.063350930814115,0.15563524770724263
8.066129480411226,0.1865460017697516
8.068908030008336,0.10970457860931956
8.071686579605446,0.0580941092883612
8.074465129202556,0.21247445477324237
8.077243678799666,0.21431115284993282
8.080022228396777,0.16018262529219315
8.082800777993889,0.1743344641511021
8.085579327590999,0.16206991927954512
8.088357877188109,0.22389105321413022
8.09113642678522,0.18529067056803192
8.09391497638233,0.40420344155896915
8.09669352597944,0.30952574239041153
8.09947207557655,0.19531744629534525
8.10225062517366,0.27153846600465203
8.10502917477077,0.18849738289378404
8.10780772436788,0.4145920497591506
8.11058627396499,0.4585476592322081
8.113364823562101,0.45198538299548696
8.116143373159211,0.21887252228635762
8.118921922756321,0.3306700885587314
8.121700472353432,0.3059911651812038
8.124479021950542,0.4085954868193923
8.127257571547652,0.2577417370571037
8.130036121144762,0.29697281590662744
8.132814670741872,0.3291584395623693
8.135593220338984,0.3916142318413132
8.138371769936095,0.45138881439617207
8.141150319533205,0.3546773147241611
8.143928869130315,0.4594026148461723
8.146707418727425,0.4805499862680632
8.149485968324536,0.38223566382023955
8.152264517921646,0.28408321539152653
8.155043067518756,0.2964972886707655
8.157821617115866,0.4776302517041958
8.160600166712976,0.3755488054654492
8.163378716310087,0.2564930380344346
8.166157265907197,0.4935055572979733
8.168935815504307,0.44948839409020924
8.171714365101417,0.30012580941196626
8.174492914698527,0.5627197681773141
8.177271464295638,0.532361062388089
8.180050013892748,0.4663549288608147
8.182828563489858,0.3286935005014392
8.18560711308697,0.31939840008343173
8.18838566268408,0.43229053477887125
8.19116421228119,0.2948306627282759
8.1939427618783,0.5098129524944672
8.196721311475411,0.3311622830537975
8.199499861072521,0.4915316463007287
8.202278410669631,0.4488782047650545
8.205056960266742,0.5513752632269747
8.207835509863852,0.38876100939863134
8.210614059460962,0.5121406735292063
8.213392609058072,0.3473479219308563
8.216171158655182,0.5683027328858579
8.218949708252293,0.47901847752607907
8.221728257849403,0.5417170989387955
8.224506807446513,0.36154688374860056
8.227285357043623,0.5448247936599311
8.230063906640734,0.5267028132787086
8.232842456237844,0.5334671749644176
8.235621005834954,0.5292241892045247
8.238399555432066,0.47932604385106836
8.241178105029176,0.6233620085129317
8.243956654626286,0.48404978680936195
8.246735204223397,0.42597788460771835
8.249513753820507,0.4941250471415792
8.252292303417617,0.4048963449863707
8.255070853014727,0.45334659656554155
8.257849402611837,0.48166736449800845
8.260627952208948,0.4609301970778157
8.263406501806058,0.5181668496007842
8.266185051403168,0.69199296546793
8.268963601000278,0.5535498921454782
8.271742150597388,0.6025717456921931
8.274520700194499,0.443706540296278
8.277299249791609,0.43396107382015603
8.28007779938872,0.45327996338241594
8.28285634898583,0.5746720669222933
8.28563489858294,0.272707544796009
8.28841344818005,0.3821905648499262
8.291191997777162,0.49358030448077483
8.293970547374272,0.4586298465885927
8.296749096971382,0.6753578044050655
8.299527646568492,0.5207530480621784
8.302306196165603,0.4070204022920778
8.305084745762713,0.3125894264815809
8.307863295359823,0.4332613636977401
8.310641844956933,0.3338201642686917
8.313420394554043,0.5075005821449713
8.316198944151154,0.4734790439623416
8.318977493748264,0.48577510330399454
8.321756043345374,0.6579547747903809
8.324534592942484,0.3554185465336934
8.327313142539595,0.4229167785028002
8.330091692136705,0.31676291921950245
8.332870241733815,0.42567843882831385
8.335648791330925,0.5886572544990545
8.338427340928035,0.48166288454952694
8.341205890525147,0.4086732245521476
8.343984440122258,0.44048819413317347
8.346762989719368,0.28931626321504955
8.349541539316478,0.36598003174753296
8.352320088913588,0.4087066930844641
8.355098638510698,0.40482970011854374
8.357877188107809,0.23641158941776785
8.360655737704919,0.41670254094177606
8.363434287302029,0.4062098645204304
8.36621283689914,0.3348197919860887
8.36899138649625,0.3670635721026882
8.37176993609336,0.212306330422417
8.37454848569047,0.20657541758009815
8.37732703528758,0.36181513779440927
8.38010558488469,0.2752593562526506
8.3828841344818,0.33445714304001695
8.38566268407891,0.41304049431715606
8.388441233676021,0.3050768659280061
8.391219783273131,0.03468320331369246
8.393998332870243,0.2938685608666572
8.396776882467353,0.2539192817747078
8.399555432064464,0.27155195737652676
8.402333981661574,0.37790226658119064
8.405112531258684,0.12289620448142022
8.407891080855794,0.2978793567556843
8.410669630452904,0.42316520476365843
8.413448180050015,0.19611050898603388
8.416226729647125,0.2984287682202159
8.419005279244235,0.3402411573627758
8.421783828841345,0.25697407585577364
8.424562378438456,0.15970967350767187
8.427340928035566,0.1494661535977455
8.430119477632676,0.28692997432181316
8.432898027229786,0.2638317915401463
8.435676576826896,0.11797460154666403
8.438455126424007,0.07091876212642367
8.441233676021117,0.05237256967939591
8.444012225618227,0.33845059238958664
8.446790775215339,0.15727055043829233
8.44956932481245,0.3918175736663537
8.45234787440956,0.2030314450772138
8.45512642400667,0.18306633886801651
8.45790497360378,0.16133617817397639
8.46068352320089,0.22217889978771527
8.463462072798,0.017175318216729213
8.46624062239511,0.32126599126006405
8.46901917199222,0.08668547140162082
8.471797721589331,0.017797116788617937
8.474576271186441,0.10978784823837794
8.477354820783551,0.1801360180091324
8.480133370380662,-0.03850458425478838
8.482911919977772,0.11026764071818798
8.485690469574882,-0.0267502424062045
8.488469019171992,-0.01443339288705308
8.491247568769102,-0.021465525525535215
8.494026118366213,0.09511724276384256
8.496804667963325,-0.10086951589622015
8.499583217560435,0.02057097015721265
8.502361767157545,-0.04176122444912277
8.505140316754655,-0.1008669917425653
8.507918866351766,-0.14621994917452158
8.510697415948876,-0.15387045718462888
8.513475965545986,-0.20566502735889852
8.516254515143096,0.03864038062964744
8.519033064740206,-0.08381703164348107
8.521811614337317,-0.052443718419782306
8.524590163934427,0.040873648096127355
8.527368713531537,-0.20756992966423227
8.530147263128647,-0.18829963077641768
8.532925812725757,-0.07723166541278959
8.535704362322868,-0.293638028345063
8.538482911919978,-0.17759387790321768
8.541261461517088,-0.22066879831802455
8.544040011114198,-0.10364464478080912
8.546818560711309,-0.18755424176328991
8.54959711030842,0.04751069129975677
8.55237565990553,-0.06779995703299435
8.555154209502641,-0.2551485513099669
8.557932759099751,-0.21673989627071966
8.560711308696861,-0.2208966001939195
8.563489858293972,0.1364464206266994
8.566268407891082,-0.35324465262910865
8.569046957488192,-0.18982275830334677
8.571825507085302,-0.42650792454336756
8.574604056682412,-0.22657997625078777
8.577382606279523,-0.04264985168661445
8.580161155876633,-0.28216591856396467
8.582939705473743,-0.13847285139026505
8.585718255070853,-0.26307186616204525
8.588496804667964,-0.306164101556329
8.591275354265074,-0.2964533165654178
8.594053903862184,-0.33726871320288226
8.596832453459294,-0.3483901390322332
8.599611003056404,-0.42592251518270285
8.602389552653516,-0.1492524924618895
8.605168102250627,-0.34617828320109706
8.607946651847737,-0.2843377630880163
8.610725201444847,-0.4081173160541888
8.613503751041957,-0.21541634098300905
8.616282300639067,-0.3610225428322974
8.619060850236178,-0.349220105266647
8.621839399833288,-0.5293607149863397
8.624617949430398,-0.31310604866286507
8.627396499027508,-0.17768622094979233
8.630175048624618,-0.45176830577513977
8.632953598221729,-0.4165960164629317
8.635732147818839,-0.4904050469837648
8.63851069741595,-0.3693412123788894
8.64128924701306,-0.38142328462295033
8.64406779661017,-0.3227676677518748
8.64684634620728,-0.34345863451805214
8.64962489580439,-0.48506631838629477
8.6524034454015,-0.386405559193889
8.655181994998612,-0.44669150086884213
8.657960544595722,-0.5277995777777288
8.660739094192833,-0.43608914735417764
8.663517643789943,-0.047815774073454054
8.666296193387053,-0.20091252782625282
8.669074742984163,-0.42276293165657
8.671853292581273,-0.26704275996240817
8.674631842178384,-0.44951532077517276
8.677410391775494,-0.4542037022698671
8.680188941372604,-0.6476231188571928
8.682967490969714,-0.5523146053931605
8.685746040566825,-0.5381530120188488
8.688524590163935,-0.4524100809592043
8.691303139761045,-0.46498126710777876
8.694081689358155,-0.5273495494648229
8.696860238955265,-0.5312691478985974
8.699638788552376,-0.4917916812447193
